time_s,ecg_adc
0.000000,3649
0.004000,3072
0.008000,72
0.012000,3072
0.016000,2884
0.020000,3072
0.024000,1094
0.028000,3072
0.032000,3147
0.036000,3072
0.040000,828
0.044000,2816
0.048000,1851
0.052000,2816
0.056000,835
0.060000,3072
0.064000,2892
0.068000,3328
0.072000,1366
0.076000,3328
0.080000,1379
0.084000,3584
0.088000,3960
0.092000,0
0.096000,660
0.100000,256
0.104000,1942
0.108000,0
0.112000,394
0.116000,0
0.120000,1156
0.124000,3840
0.128000,2160
0.132000,3584
0.136000,1347
0.140000,2304
0.144000,3584
0.148000,1776
0.152000,2521
0.156000,1535
0.160000,462
0.164000,1279
0.168000,3525
0.172000,1279
0.176000,453
0.180000,1279
0.184000,1740
0.188000,1279
0.192000,2511
0.196000,1535
0.200000,2770
0.204000,1535
0.208000,470
0.212000,1535
0.216000,2526
0.220000,1791
0.224000,1766
0.228000,1791
0.232000,2294
0.236000,2063
0.240000,2297
0.244000,2063
0.248000,3330
0.252000,2048
0.256000,515
0.260000,2048
0.264000,3860
0.268000,2560
0.272000,329
0.276000,0
0.280000,3557
0.284000,3344
0.288000,4033
0.292000,2337
0.296000,3920
0.300000,3874
0.304000,1416
0.308000,3874
0.312000,3156
0.316000,2594
0.320000,2281
0.324000,529
0.328000,3906
0.332000,1281
0.336000,122
0.340000,3072
0.344000,3122
0.348000,2304
0.352000,1758
0.356000,511
0.360000,615
0.364000,3071
0.368000,1803
0.372000,1519
0.376000,3533
0.380000,1518
0.384000,746
0.388000,2030
0.392000,774
0.396000,2303
0.400000,2319
0.404000,2559
0.408000,2835
0.412000,2559
0.416000,3604
0.420000,2559
0.424000,278
0.428000,2559
0.432000,2332
0.436000,2815
0.440000,2856
0.444000,3071
0.448000,61
0.452000,3327
0.456000,3668
0.460000,3839
0.464000,2932
0.468000,255
0.472000,2963
0.476000,767
0.480000,3509
0.484000,1279
0.488000,2004
0.492000,1535
0.496000,2284
0.500000,2063
0.504000,3083
0.508000,2304
0.512000,3100
0.516000,2560
0.520000,1834
0.524000,2560
0.528000,3892
0.532000,2816
0.536000,3895
0.540000,2816
0.544000,1595
0.548000,2816
0.552000,2369
0.556000,3072
0.560000,1857
0.564000,2816
0.568000,2619
0.572000,2816
0.576000,2609
0.580000,2816
0.584000,1079
0.588000,2816
0.592000,2118
0.596000,3328
0.600000,2651
0.604000,3584
0.608000,1894
0.612000,3584
0.616000,637
0.620000,0
0.624000,404
0.628000,256
0.632000,404
0.636000,0
0.640000,2940
0.644000,3840
0.648000,623
0.652000,3584
0.656000,3675
0.660000,3072
0.664000,2853
0.668000,2048
0.672000,3300
0.676000,1535
0.680000,2762
0.684000,1279
0.688000,2232
0.692000,1023
0.696000,2223
0.700000,1023
0.704000,3504
0.708000,1023
0.712000,696
0.716000,1023
0.720000,698
0.724000,1023
0.728000,1468
0.732000,1023
0.736000,1471
0.740000,1023
0.744000,1469
0.748000,1023
0.752000,701
0.756000,1023
0.760000,2749
0.764000,1279
0.768000,1737
0.772000,1279
0.776000,3794
0.780000,1535
0.784000,985
0.788000,1535
0.792000,3043
0.796000,2047
0.800000,1045
0.804000,3072
0.808000,1695
0.812000,2064
0.816000,3712
0.820000,1297
0.824000,1805
0.828000,2594
0.832000,323
0.836000,2850
0.840000,1037
0.844000,1298
0.848000,2475
0.852000,3857
0.856000,1312
0.860000,769
0.864000,3422
0.868000,2560
0.872000,3591
0.876000,1776
0.880000,1719
0.884000,4095
0.888000,3139
0.892000,2559
0.896000,236
0.900000,1262
0.904000,438
0.908000,1006
0.912000,3530
0.916000,1518
0.920000,736
0.924000,1774
0.928000,2796
0.932000,1774
0.936000,2263
0.940000,1518
0.944000,723
0.948000,1518
0.952000,218
0.956000,1262
0.960000,3259
0.964000,1006
0.968000,2225
0.972000,1262
0.976000,2783
0.980000,2030
0.984000,2037
0.988000,1774
0.992000,2794
0.996000,2030
1.000000,532
1.004000,3071
1.008000,1104
1.012000,3583
1.016000,1890
1.020000,3839
1.024000,2433
1.028000,511
1.032000,4002
1.036000,767
1.040000,4008
1.044000,1023
1.048000,1225
1.052000,1279
1.056000,3522
1.060000,1279
1.064000,191
1.068000,1023
1.072000,1212
1.076000,1279
1.080000,3804
1.084000,1791
1.088000,3816
1.092000,1791
1.096000,3809
1.100000,1791
1.104000,1777
1.108000,1791
1.112000,2536
1.116000,1791
1.120000,468
1.124000,1279
1.128000,2234
1.132000,767
1.136000,390
1.140000,4095
1.144000,654
1.148000,1023
1.152000,3560
1.156000,2063
1.160000,3587
1.164000,2032
1.168000,501
1.172000,2047
1.176000,2024
1.180000,1023
1.184000,2965
1.188000,4095
1.192000,1113
1.196000,3327
1.200000,3653
1.204000,3071
1.208000,1323
1.212000,2815
1.216000,1338
1.220000,3071
1.224000,1333
1.228000,2815
1.232000,1321
1.236000,2815
1.240000,1330
1.244000,3071
1.248000,588
1.252000,3583
1.256000,2399
1.260000,3839
1.264000,3162
1.268000,3583
1.272000,2383
1.276000,3839
1.280000,3454
1.284000,511
1.288000,2966
1.292000,511
1.296000,1422
1.300000,255
1.304000,2709
1.308000,767
1.312000,2218
1.316000,1023
1.320000,2748
1.324000,1535
1.328000,4080
1.332000,2575
1.336000,883
1.340000,1280
1.344000,2887
1.348000,273
1.352000,196
1.356000,1553
1.360000,1275
1.364000,1553
1.368000,3015
1.372000,529
1.376000,1412
1.380000,3345
1.384000,40
1.388000,1281
1.392000,895
1.396000,2816
1.400000,261
1.404000,1264
1.408000,1160
1.412000,3327
1.416000,1564
1.420000,2031
1.424000,1764
1.428000,1262
1.432000,710
1.436000,1262
1.440000,4051
1.444000,1774
1.448000,1268
1.452000,2030
1.456000,1026
1.460000,2303
1.464000,2068
1.468000,2815
1.472000,2851
1.476000,2815
1.480000,2337
1.484000,2815
1.488000,291
1.492000,2815
1.496000,819
1.500000,3071
1.504000,1096
1.508000,3583
1.512000,3187
1.516000,255
1.520000,1683
1.524000,511
1.528000,682
1.532000,1023
1.536000,3023
1.540000,1791
1.544000,758
1.548000,2063
1.552000,1300
1.556000,2304
1.560000,298
1.564000,2816
1.568000,1094
1.572000,3072
1.576000,2897
1.580000,3328
1.584000,856
1.588000,3328
1.592000,859
1.596000,3328
1.600000,1374
1.604000,3328
1.608000,1629
1.612000,3328
1.616000,93
1.620000,3328
1.624000,3411
1.628000,3328
1.632000,2649
1.636000,3584
1.640000,2920
1.644000,3840
1.648000,1151
1.652000,0
1.656000,402
1.660000,256
1.664000,1183
1.668000,512
1.672000,2488
1.676000,1024
1.680000,192
1.684000,768
1.688000,2985
1.692000,512
1.696000,1182
1.700000,256
1.704000,1169
1.708000,3840
1.712000,3933
1.716000,2816
1.720000,2836
1.724000,2032
1.728000,1764
1.732000,1535
1.736000,988
1.740000,1535
1.744000,3801
1.748000,1535
1.752000,1233
1.756000,1279
1.760000,2510
1.764000,1535
1.768000,4054
1.772000,1535
1.776000,1755
1.780000,1535
1.784000,2529
1.788000,1791
1.792000,2527
1.796000,1791
1.800000,3043
1.804000,1791
1.808000,2278
1.812000,2047
1.816000,2294
1.820000,2063
1.824000,2560
1.828000,2048
1.832000,3
1.836000,2048
1.840000,3341
1.844000,2304
1.848000,2584
1.852000,2560
1.856000,3380
1.860000,3328
1.864000,2700
1.868000,1536
1.872000,3146
1.876000,785
1.880000,271
1.884000,3106
1.888000,1382
1.892000,3874
1.896000,122
1.900000,3362
1.904000,2087
1.908000,1810
1.912000,1451
1.916000,3345
1.920000,2046
1.924000,0
1.928000,313
1.932000,2032
1.936000,1482
1.940000,511
1.944000,620
1.948000,3071
1.952000,3092
1.956000,2031
1.960000,2514
1.964000,1262
1.968000,1237
1.972000,2030
1.976000,3886
1.980000,3583
1.984000,3425
1.988000,3583
1.992000,1864
1.996000,3071
2.000000,819
2.004000,2815
2.008000,51
2.012000,3327
2.016000,1884
2.020000,3839
2.024000,2942
2.028000,255
2.032000,3716
2.036000,255
2.040000,896
2.044000,4095
2.048000,2432
2.052000,511
2.056000,1957
2.060000,1023
2.064000,1234
2.068000,1535
2.072000,3048
2.076000,2063
2.080000,2849
2.084000,3072
2.088000,2905
2.092000,3584
2.096000,1378
2.100000,3328
2.104000,344
2.108000,3328
2.112000,859
2.116000,3328
2.120000,1369
2.124000,3328
2.128000,1133
2.132000,3840
2.136000,1924
2.140000,3840
2.144000,629
2.148000,3584
2.152000,2910
2.156000,3328
2.160000,2382
2.164000,3328
2.168000,1625
2.172000,3328
2.176000,610
2.180000,3584
2.184000,1911
2.188000,3840
2.192000,1161
2.196000,0
2.200000,1937
2.204000,256
2.208000,2476
2.212000,768
2.216000,3753
2.220000,256
2.224000,1920
2.228000,3584
2.232000,1629
2.236000,2816
2.240000,28
2.244000,2032
2.248000,732
2.252000,1279
2.256000,3260
2.260000,1023
2.264000,3501
2.268000,767
2.272000,2458
2.276000,511
2.280000,3213
2.284000,255
2.288000,3716
2.292000,511
2.296000,679
2.300000,767
2.304000,933
2.308000,767
2.312000,698
2.316000,1279
2.320000,1230
2.324000,1279
2.328000,1999
2.332000,1535
2.336000,248
2.340000,2063
2.344000,1027
2.348000,1776
2.352000,481
2.356000,1535
2.360000,473
2.364000,1535
2.368000,3036
2.372000,1791
2.376000,3049
2.380000,2047
2.384000,2048
2.388000,2048
2.392000,2315
2.396000,2816
2.400000,3197
2.404000,1536
2.408000,2389
2.412000,1041
2.416000,2315
2.420000,2850
2.424000,2371
2.428000,3106
2.432000,805
2.436000,1810
2.440000,3017
2.444000,273
2.448000,2378
2.452000,1793
2.456000,2959
2.460000,3072
2.464000,276
2.468000,1776
2.472000,2997
2.476000,4095
2.480000,2360
2.484000,2559
2.488000,3317
2.492000,1774
2.496000,3291
2.500000,1774
2.504000,4085
2.508000,2302
2.512000,2835
2.516000,2559
2.520000,2833
2.524000,2559
2.528000,1049
2.532000,2559
2.536000,2849
2.540000,2815
2.544000,2083
2.548000,2815
2.552000,3360
2.556000,2815
2.560000,2867
2.564000,3327
2.568000,2647
2.572000,3839
2.576000,2922
2.580000,4095
2.584000,2945
2.588000,511
2.592000,2730
2.596000,1279
2.600000,2514
2.604000,1791
2.608000,2284
2.612000,2063
2.616000,3088
2.620000,2560
2.624000,2866
2.628000,3072
2.632000,2896
2.636000,3328
2.640000,851
2.644000,3328
2.648000,2144
2.652000,3584
2.656000,2654
2.660000,3584
2.664000,2914
2.668000,3584
2.672000,3685
2.676000,3584
2.680000,870
2.684000,3584
2.688000,3434
2.692000,3584
2.696000,91
2.700000,3328
2.704000,88
2.708000,3328
2.712000,2146
2.716000,3840
2.720000,1399
2.724000,3840
2.728000,2441
2.732000,256
2.736000,1682
2.740000,256
2.744000,3248
2.748000,768
2.752000,4016
2.756000,512
2.760000,3748
2.764000,512
2.768000,3755
2.772000,512
2.776000,3990
2.780000,0
2.784000,371
2.788000,3328
2.792000,57
2.796000,2304
2.800000,3584
2.804000,1776
2.808000,3017
2.812000,767
2.816000,641
2.820000,3839
2.824000,610
2.828000,3839
2.832000,1139
2.836000,4095
2.840000,3720
2.844000,511
2.848000,3480
2.852000,511
2.856000,149
2.860000,511
2.864000,155
2.868000,511
2.872000,2185
2.876000,255
2.880000,137
2.884000,511
2.888000,920
2.892000,511
2.896000,3503
2.900000,1279
2.904000,1244
2.908000,1535
2.912000,3521
2.916000,1023
2.920000,2753
2.924000,1535
2.928000,3568
2.932000,2575
2.936000,2411
2.940000,1024
2.944000,2866
2.948000,529
2.952000,2811
2.956000,2849
2.960000,609
2.964000,3874
2.968000,2920
2.972000,3362
2.976000,580
2.980000,2338
2.984000,3511
2.988000,2577
2.992000,905
2.996000,2048
3.000000,3521
3.004000,767
3.008000,2689
3.012000,3327
3.016000,495
3.020000,1006
3.024000,944
3.028000,1006
3.032000,709
3.036000,1262
3.040000,1733
3.044000,1006
3.048000,1473
3.052000,1518
3.056000,1274
3.060000,2030
3.064000,239
3.068000,1518
3.072000,2238
3.076000,1262
3.080000,206
3.084000,1518
3.088000,730
3.092000,1518
3.096000,2026
3.100000,2302
3.104000,3627
3.108000,3071
3.112000,3386
3.116000,3071
3.120000,2603
3.124000,3071
3.128000,327
3.132000,3839
3.136000,656
3.140000,767
3.144000,173
3.148000,767
3.152000,1458
3.156000,1023
3.160000,1225
3.164000,1535
3.168000,2805
3.172000,2319
3.176000,33
3.180000,2304
3.184000,3853
3.188000,2048
3.192000,3866
3.196000,2560
3.200000,39
3.204000,2304
3.208000,3343
3.212000,2304
3.216000,1073
3.220000,2816
3.224000,1071
3.228000,2304
3.232000,2823
3.236000,2032
3.240000,998
3.244000,1535
3.248000,473
3.252000,1791
3.256000,1032
3.260000,2560
3.264000,2873
3.268000,3072
3.272000,1857
3.276000,2816
3.280000,830
3.284000,3072
3.288000,1366
3.292000,3328
3.296000,1609
3.300000,2560
3.304000,538
3.308000,2560
3.312000,65
3.316000,3072
3.320000,2871
3.324000,2048
3.328000,4047
3.332000,767
3.336000,3208
3.340000,255
3.344000,2200
3.348000,767
3.352000,2953
3.356000,4095
3.360000,3178
3.364000,3839
3.368000,3942
3.372000,3839
3.376000,1639
3.380000,3839
3.384000,2955
3.388000,767
3.392000,2467
3.396000,511
3.400000,2432
3.404000,255
3.408000,1430
3.412000,767
3.416000,2751
3.420000,1279
3.424000,1978
3.428000,767
3.432000,1450
3.436000,767
3.440000,3255
3.444000,1279
3.448000,2770
3.452000,1535
3.456000,2761
3.460000,1535
3.464000,2792
3.468000,2319
3.472000,1374
3.476000,768
3.480000,2078
3.484000,17
3.488000,1999
3.492000,2081
3.496000,2628
3.500000,3874
3.504000,1143
3.508000,3106
3.512000,34
3.516000,2082
3.520000,2527
3.524000,273
3.528000,35
3.532000,769
3.536000,3183
3.540000,3072
3.544000,1050
3.548000,1264
3.552000,1132
3.556000,2559
3.560000,506
3.564000,2030
3.568000,3586
3.572000,2303
3.576000,1796
3.580000,2031
3.584000,3326
3.588000,2030
3.592000,2018
3.596000,1518
3.600000,3309
3.604000,2302
3.608000,2076
3.612000,3071
3.616000,3386
3.620000,3071
3.624000,2098
3.628000,3327
3.632000,1104
3.636000,3583
3.640000,1373
3.644000,3583
3.648000,3925
3.652000,3583
3.656000,2922
3.660000,255
3.664000,920
3.668000,767
3.672000,2490
3.676000,1535
3.680000,747
3.684000,2063
3.688000,2583
3.692000,2560
3.696000,1065
3.700000,2560
3.704000,2341
3.708000,2560
3.712000,2591
3.716000,2560
3.720000,1573
3.724000,2560
3.728000,1590
3.732000,2816
3.736000,2369
3.740000,3072
3.744000,3654
3.748000,3072
3.752000,3144
3.756000,3072
3.760000,3140
3.764000,3072
3.768000,1094
3.772000,3072
3.776000,1365
3.780000,3328
3.784000,1382
3.788000,3584
3.792000,2679
3.796000,0
3.800000,655
3.804000,256
3.808000,3238
3.812000,768
3.816000,2238
3.820000,1024
3.824000,3773
3.828000,768
3.832000,1195
3.836000,256
3.840000,1164
3.844000,3840
3.848000,1638
3.852000,3072
3.856000,3118
3.860000,2304
3.864000,3061
3.868000,1791
3.872000,1234
3.876000,1279
3.880000,1225
3.884000,1279
3.888000,716
3.892000,1279
3.896000,1226
3.900000,1279
3.904000,1996
3.908000,1279
3.912000,980
3.916000,1535
3.920000,227
3.924000,1791
3.928000,1772
3.932000,1791
3.936000,2544
3.940000,2047
3.944000,3064
3.948000,2063
3.952000,3847
3.956000,2048
3.960000,1802
3.964000,2048
3.968000,21
3.972000,2304
3.976000,1820
3.980000,2304
3.984000,3876
3.988000,2560
3.992000,1582
3.996000,2816
4.000000,2395
4.004000,256
4.008000,1252
4.012000,3088
4.016000,3764
4.020000,2081
4.024000,313
4.028000,3362
4.032000,112
4.036000,3618
4.040000,1855
4.044000,2082
4.048000,1490
4.052000,17
4.056000,1587
4.060000,1025
4.064000,1131
4.068000,2560
4.072000,2309
4.076000,1776
4.080000,440
4.084000,255
4.088000,3425
4.092000,3327
4.096000,2345
4.100000,2559
4.104000,1798
4.108000,2303
4.112000,40
4.116000,3071
4.120000,571
4.124000,3071
4.128000,2099
4.132000,3071
4.136000,43
4.140000,2815
4.144000,3629
4.148000,3071
4.152000,3391
4.156000,3327
4.160000,3405
4.164000,3583
4.168000,1121
4.172000,3839
4.176000,379
4.180000,255
4.184000,923
4.188000,767
4.192000,1212
4.196000,1279
4.200000,3801
4.204000,1791
4.208000,1523
4.212000,2063
4.216000,2338
4.220000,2816
4.224000,3643
4.228000,3072
4.232000,3406
4.236000,3328
4.240000,2137
4.244000,3584
4.248000,3685
4.252000,3584
4.256000,3685
4.260000,3584
4.264000,3429
4.268000,3584
4.272000,2146
4.276000,3584
4.280000,3419
4.284000,3328
4.288000,1616
4.292000,3072
4.296000,844
4.300000,3072
4.304000,70
4.308000,3072
4.312000,3406
4.316000,3328
4.320000,3421
4.324000,3584
4.328000,1899
4.332000,3584
4.336000,2167
4.340000,0
4.344000,1170
4.348000,256
4.352000,1948
4.356000,0
4.360000,3968
4.364000,3840
4.368000,3695
4.372000,3584
4.376000,91
4.380000,3072
4.384000,815
4.388000,2048
4.392000,1264
4.396000,1535
4.400000,3537
4.404000,1279
4.408000,3516
4.412000,1023
4.416000,946
4.420000,767
4.424000,2723
4.428000,767
4.432000,675
4.436000,767
4.440000,2735
4.444000,1023
4.448000,1970
4.452000,767
4.456000,1963
4.460000,767
4.464000,692
4.468000,1023
4.472000,705
4.476000,1279
4.480000,2767
4.484000,1535
4.488000,3284
4.492000,1535
4.496000,3282
4.500000,1535
4.504000,2770
4.508000,1535
4.512000,3030
4.516000,1791
4.520000,2038
4.524000,2063
4.528000,3375
4.532000,3584
4.536000,1204
4.540000,2320
4.544000,141
4.548000,1553
4.552000,2085
4.556000,3362
4.560000,1642
4.564000,3362
4.568000,1583
4.572000,1554
4.576000,2213
4.580000,3345
4.584000,3313
4.588000,0
4.592000,805
4.596000,1776
4.600000,1233
4.604000,1023
4.608000,1947
4.612000,3839
4.616000,1093
4.620000,2559
4.624000,241
4.628000,1262
4.632000,2488
4.636000,1262
4.640000,1495
4.644000,1774
4.648000,3573
4.652000,2030
4.656000,3313
4.660000,2030
4.664000,2042
4.668000,2030
4.672000,506
4.676000,2030
4.680000,2554
4.684000,2302
4.688000,3079
4.692000,2559
4.696000,1313
4.700000,2815
4.704000,2614
4.708000,3327
4.712000,1359
4.716000,3583
4.720000,874
4.724000,4095
4.728000,1677
4.732000,511
4.736000,687
4.740000,1023
4.744000,1738
4.748000,1535
4.752000,2288
4.756000,2063
4.760000,1035
4.764000,2304
4.768000,3876
4.772000,2560
4.776000,2606
4.780000,2816
4.784000,1593
4.788000,2816
4.792000,1855
4.796000,2816
4.800000,1086
4.804000,2816
4.808000,2615
4.812000,2816
4.816000,3890
4.820000,2816
4.824000,313
4.828000,2816
4.832000,825
4.836000,2816
4.840000,1089
4.844000,3072
4.848000,2904
4.852000,3584
4.856000,2152
4.860000,3840
4.864000,1148
4.868000,0
4.872000,1945
4.876000,256
4.880000,3228
4.884000,256
4.888000,1929
4.892000,3840
4.896000,1397
4.900000,3584
4.904000,352
4.908000,3072
4.912000,814
4.916000,2048
4.920000,3817
4.924000,1535
4.928000,3276
4.932000,1279
4.936000,2748
4.940000,1023
4.944000,687
4.948000,767
4.952000,168
4.956000,767
4.960000,2219
4.964000,1023
4.968000,3508
4.972000,1023
4.976000,1208
4.980000,1023
4.984000,1981
4.988000,1023
4.992000,708
4.996000,1279
5.000000,3282
5.004000,1535
5.008000,1239
5.012000,1535
5.016000,3039
5.020000,1791
5.024000,228
5.028000,1791
5.032000,2283
5.036000,2047
5.040000,3057
5.044000,2063
5.048000,1565
5.052000,3072
5.056000,663
5.060000,1792
5.064000,3178
5.068000,1297
5.072000,1567
5.076000,3106
5.080000,3437
5.084000,3874
5.088000,3411
5.092000,2338
5.096000,2513
5.100000,17
5.104000,291
5.108000,769
5.112000,3408
5.116000,2048
5.120000,1756
5.124000,1279
5.128000,189
5.132000,511
5.136000,1897
5.140000,3071
5.144000,22
5.148000,1775
5.152000,966
5.156000,1006
5.160000,3531
5.164000,1774
5.168000,508
5.172000,2302
5.176000,2319
5.180000,2559
5.184000,2838
5.188000,2559
5.192000,2321
5.196000,2559
5.200000,1046
5.204000,2559
5.208000,803
5.212000,2815
5.216000,563
5.220000,3071
5.224000,2114
5.228000,3583
5.232000,1889
5.236000,3839
5.240000,2174
5.244000,511
5.248000,2206
5.252000,1023
5.256000,2751
5.260000,1535
5.264000,230
5.268000,2047
5.272000,11
5.276000,2304
5.280000,546
5.284000,2560
5.288000,3121
5.292000,2816
5.296000,1593
5.300000,2816
5.304000,1596
5.308000,2816
5.312000,3649
5.316000,3072
5.320000,328
5.324000,3072
5.328000,844
5.332000,3072
5.336000,1862
5.340000,2816
5.344000,1086
5.348000,2816
5.352000,3899
5.356000,2816
5.360000,3638
5.364000,2816
5.368000,3644
5.372000,3072
5.376000,848
5.380000,3328
5.384000,3685
5.388000,3584
5.392000,109
5.396000,3840
5.400000,3722
5.404000,256
5.408000,3735
5.412000,256
5.416000,3983
5.420000,0
5.424000,639
5.428000,3840
5.432000,885
5.436000,3584
5.440000,2385
5.444000,2816
5.448000,3602
5.452000,2032
5.456000,2534
5.460000,1791
5.464000,4060
5.468000,1535
5.472000,3796
5.476000,1535
5.480000,1241
5.484000,1535
5.488000,2014
5.492000,1535
5.496000,3299
5.500000,1791
5.504000,3043
5.508000,1791
5.512000,1768
5.516000,1791
5.520000,3827
5.524000,2047
5.528000,2
5.532000,2048
5.536000,522
5.540000,2048
5.544000,1291
5.548000,2048
5.552000,3088
5.556000,2304
5.560000,536
5.564000,2304
5.568000,2596
5.572000,2816
5.576000,2390
5.580000,256
5.584000,3560
5.588000,3344
5.592000,3269
5.596000,2593
5.600000,3936
5.604000,34
5.608000,3228
5.612000,290
5.616000,1128
5.620000,2594
5.624000,3811
5.628000,273
5.632000,827
5.636000,1281
5.640000,901
5.644000,3328
5.648000,334
5.652000,2816
5.656000,267
5.660000,1264
5.664000,3977
5.668000,3583
5.672000,550
5.676000,2031
5.680000,228
5.684000,1774
5.688000,3839
5.692000,2558
5.696000,1317
5.700000,2815
5.704000,3634
5.708000,3071
5.712000,1339
5.716000,3071
5.720000,1851
5.724000,3071
5.728000,579
5.732000,3327
5.736000,3407
5.740000,3583
5.744000,609
5.748000,3839
5.752000,2422
5.756000,255
5.760000,1680
5.764000,511
5.768000,171
5.772000,1023
5.776000,457
5.780000,1535
5.784000,491
5.788000,2047
5.792000,1293
5.796000,2304
5.800000,1583
5.804000,2816
5.808000,2889
5.812000,3328
5.816000,2651
5.820000,3584
5.824000,3683
5.828000,3584
5.832000,1898
5.836000,3584
5.840000,2928
5.844000,3840
5.848000,3445
5.852000,3840
5.856000,2674
5.860000,3840
5.864000,3957
5.868000,3840
5.872000,3447
5.876000,3840
5.880000,1904
5.884000,3584
5.888000,1387
5.892000,3584
5.896000,1909
5.900000,3840
5.904000,1929
5.908000,0
5.912000,1174
5.916000,256
5.920000,2212
5.924000,768
5.928000,2233
5.932000,1024
5.936000,2491
5.940000,768
5.944000,2473
5.948000,512
5.952000,2714
5.956000,256
5.960000,2953
5.964000,3840
5.968000,3157
5.972000,2816
5.976000,3352
5.980000,2048
5.984000,1013
5.988000,1791
5.992000,1763
5.996000,1535
6.000000,1246
6.004000,1535
6.008000,1241
6.012000,1535
6.016000,1758
6.020000,1535
6.024000,1756
6.028000,1535
6.032000,3809
6.036000,1791
6.040000,1769
6.044000,1791
6.048000,3568
6.052000,2047
6.056000,2294
6.060000,2063
6.064000,2560
6.068000,2048
6.072000,2818
6.076000,2048
6.080000,3845
6.084000,2048
6.088000,2058
6.092000,2304
6.096000,3101
6.100000,2816
6.104000,1883
6.108000,256
6.112000,3586
6.116000,3857
6.120000,3297
6.124000,2849
6.128000,614
6.132000,34
6.136000,2201
6.140000,34
6.144000,3660
6.148000,2082
6.152000,1210
6.156000,3601
6.160000,2825
6.164000,513
6.168000,3923
6.172000,2560
6.176000,2071
6.180000,2048
6.184000,2510
6.188000,511
6.192000,2143
6.196000,3071
6.200000,2566
6.204000,1775
6.208000,2771
6.212000,1774
6.216000,2554
6.220000,2558
6.224000,3356
6.228000,2815
6.232000,808
6.236000,2815
6.240000,1321
6.244000,2815
6.248000,2093
6.252000,3071
6.256000,3632
6.260000,3071
6.264000,2875
6.268000,3327
6.272000,3402
6.276000,3583
6.280000,349
6.284000,3839
6.288000,2932
6.292000,255
6.296000,2963
6.300000,767
6.304000,3509
6.308000,1279
6.312000,1241
6.316000,1791
6.320000,1794
6.324000,2048
6.328000,284
6.332000,2560
6.336000,1076
6.340000,2816
6.344000,1608
6.348000,3072
6.352000,3667
6.356000,3328
6.360000,857
6.364000,3328
6.368000,1629
6.372000,3328
6.376000,2656
6.380000,3584
6.384000,1378
6.388000,3328
6.392000,347
6.396000,3328
6.400000,3417
6.404000,3328
6.408000,3667
6.412000,3328
6.416000,2139
6.420000,3584
6.424000,3432
6.428000,3840
6.432000,383
6.436000,0
6.440000,653
6.444000,256
6.448000,1700
6.452000,512
6.456000,1712
6.460000,512
6.464000,1702
6.468000,256
6.472000,1942
6.476000,0
6.480000,3973
6.484000,3840
6.488000,1630
6.492000,2816
6.496000,3873
6.500000,2048
6.504000,3313
6.508000,1791
6.512000,4060
6.516000,1535
6.520000,2772
6.524000,1535
6.528000,2514
6.532000,1535
6.536000,1745
6.540000,1279
6.544000,2511
6.548000,1535
6.552000,2770
6.556000,1535
6.560000,471
6.564000,1535
6.568000,2014
6.572000,1535
6.576000,3812
6.580000,1791
6.584000,1771
6.588000,1791
6.592000,2544
6.596000,2047
6.600000,3059
6.604000,2047
6.608000,243
6.612000,2047
6.616000,770
6.620000,2048
6.624000,1057
6.628000,3072
6.632000,2449
6.636000,1792
6.640000,1119
6.644000,1041
6.648000,2077
6.652000,3362
6.656000,621
6.660000,3874
6.664000,3936
6.668000,2594
6.672000,228
6.676000,273
6.680000,3387
6.684000,1281
6.688000,1901
6.692000,2304
6.696000,1784
6.700000,1791
6.704000,3291
6.708000,1023
6.712000,2689
6.716000,3583
6.720000,3365
6.724000,2031
6.728000,2512
6.732000,1262
6.736000,208
6.740000,1774
6.744000,1279
6.748000,2302
6.752000,3091
6.756000,2559
6.760000,24
6.764000,2559
6.768000,795
6.772000,2559
6.776000,2846
6.780000,2815
6.784000,2601
6.788000,3071
6.792000,2872
6.796000,3327
6.800000,3919
6.804000,3583
6.808000,2916
6.812000,4095
6.816000,384
6.820000,255
6.824000,664
6.828000,767
6.832000,2493
6.836000,1535
6.840000,2270
6.844000,2047
6.848000,1280
6.852000,2048
6.856000,2328
6.860000,2560
6.864000,2343
6.868000,2816
6.872000,820
6.876000,2816
6.880000,2367
6.884000,3072
6.888000,1855
6.892000,2816
6.896000,2367
6.900000,3072
6.904000,1599
6.908000,2816
6.912000,1855
6.916000,2816
6.920000,318
6.924000,2816
6.928000,3641
6.932000,2816
6.936000,2610
6.940000,2816
6.944000,1078
6.948000,2816
6.952000,2377
6.956000,3328
6.960000,2137
6.964000,3584
6.968000,2922
6.972000,3840
6.976000,3455
6.980000,0
6.984000,2695
6.988000,0
6.992000,3452
6.996000,3840
7.000000,111
7.004000,3584
7.008000,2400
7.012000,3328
7.016000,3897
7.020000,2304
7.024000,1779
7.028000,1535
7.032000,3278
7.036000,1279
7.040000,4028
7.044000,1023
7.048000,2740
7.052000,1023
7.056000,2223
7.060000,1023
7.064000,3248
7.068000,1023
7.072000,1205
7.076000,1023
7.080000,4033
7.084000,1279
7.088000,1740
7.092000,1279
7.096000,4050
7.100000,1535
7.104000,1755
7.108000,1535
7.112000,3811
7.116000,1791
7.120000,488
7.124000,1791
7.128000,3056
7.132000,2047
7.136000,2296
7.140000,2063
7.144000,3335
7.148000,2304
7.152000,2865
7.156000,3584
7.160000,947
7.164000,2320
7.168000,2448
7.172000,1809
7.176000,3385
7.180000,3618
7.184000,1922
7.188000,3874
7.192000,3419
7.196000,2594
7.200000,1768
7.204000,273
7.208000,578
7.212000,1281
7.216000,132
7.220000,3072
7.224000,558
7.228000,2304
7.232000,2800
7.236000,1023
7.240000,2673
7.244000,3327
7.248000,2585
7.252000,2031
7.256000,4055
7.260000,1518
7.264000,3308
7.268000,2302
7.272000,2070
7.276000,2815
7.280000,291
7.284000,2815
7.288000,811
7.292000,2815
7.296000,1325
7.300000,2815
7.304000,2094
7.308000,3071
7.312000,2616
7.316000,3327
7.320000,2632
7.324000,3583
7.328000,1631
7.332000,3839
7.336000,121
7.340000,255
7.344000,3992
7.348000,767
7.352000,3512
7.356000,1279
7.360000,3799
7.364000,1791
7.368000,760
7.372000,2063
7.376000,3352
7.380000,2560
7.384000,818
7.388000,2816
7.392000,67
7.396000,3072
7.400000,1612
7.404000,3072
7.408000,83
7.412000,3328
7.416000,1373
7.420000,3328
7.424000,1373
7.428000,3328
7.432000,862
7.436000,3328
7.440000,3416
7.444000,3328
7.448000,2131
7.452000,3328
7.456000,1100
7.460000,3072
7.464000,2124
7.468000,3328
7.472000,2134
7.476000,3584
7.480000,3947
7.484000,3840
7.488000,2685
7.492000,0
7.496000,396
7.500000,256
7.504000,4004
7.508000,512
7.512000,2983
7.516000,512
7.520000,2714
7.524000,256
7.528000,3469
7.532000,0
7.536000,887
7.540000,3328
7.544000,2366
7.548000,2560
7.552000,3339
7.556000,2032
7.560000,3819
7.564000,1791
7.568000,1249
7.572000,1535
7.576000,475
7.580000,1535
7.584000,4057
7.588000,1535
7.592000,983
7.596000,1535
7.600000,988
7.604000,1535
7.608000,1756
7.612000,1535
7.616000,2014
7.620000,1535
7.624000,227
7.628000,1791
7.632000,1259
7.636000,1791
7.640000,2542
7.644000,2047
7.648000,243
7.652000,2047
7.656000,2296
7.660000,2063
7.664000,2816
7.668000,2048
7.672000,1291
7.676000,2304
7.680000,2113
7.684000,0
7.688000,1245
7.692000,3088
7.696000,701
7.700000,2337
7.704000,3923
7.708000,3874
7.712000,1418
7.716000,3874
7.720000,2896
7.724000,2338
7.728000,1745
7.732000,3857
7.736000,2075
7.740000,769
7.744000,3926
7.748000,2560
7.752000,2064
7.756000,2032
7.760000,3780
7.764000,255
7.768000,3413
7.772000,2815
7.776000,1783
7.780000,1262
7.784000,952
7.788000,1006
7.792000,722
7.796000,1774
7.800000,2812
7.804000,2302
7.808000,3588
7.812000,2303
7.816000,3847
7.820000,2303
7.824000,1031
7.828000,2303
7.832000,3091
7.836000,2559
7.840000,1558
7.844000,2559
7.848000,2854
7.852000,3071
7.856000,1085
7.860000,3327
7.864000,3930
7.868000,3839
7.872000,2420
7.876000,255
7.880000,2702
7.884000,767
7.888000,4020
7.892000,1279
7.896000,985
7.900000,1791
7.904000,3574
7.908000,2063
7.912000,16
7.916000,2304
7.920000,3361
7.924000,2560
7.928000,3630
7.932000,2816
7.936000,825
7.940000,2816
7.944000,1598
7.948000,2816
7.952000,1599
7.956000,2816
7.960000,1599
7.964000,2816
7.968000,3902
7.972000,2816
7.976000,2614
7.980000,2816
7.984000,2610
7.988000,2816
7.992000,1076
7.996000,2816
8.000000,2374
8.004000,3328
8.008000,2907
8.012000,3584
8.016000,2666
8.020000,3840
8.024000,3964
8.028000,0
8.032000,397
8.036000,0
8.040000,128
8.044000,3840
8.048000,626
8.052000,3584
8.056000,3426
8.060000,3328
8.064000,571
8.068000,2304
8.072000,1011
8.076000,1535
8.080000,1993
8.084000,1023
8.088000,2231
8.092000,1023
8.096000,939
8.100000,767
8.104000,171
8.108000,767
8.112000,168
8.116000,767
8.120000,682
8.124000,767
8.128000,2733
8.132000,1023
8.136000,181
8.140000,1023
8.144000,1981
8.148000,1023
8.152000,3266
8.156000,1279
8.160000,1225
8.164000,1279
8.168000,1998
8.172000,1279
8.176000,4052
8.180000,1535
8.184000,2014
8.188000,1535
8.192000,481
8.196000,1791
8.200000,2304
8.204000,2560
8.208000,862
8.212000,512
8.216000,2073
8.220000,273
8.224000,4081
8.228000,2849
8.232000,3934
8.236000,3874
8.240000,880
8.244000,3106
8.248000,1811
8.252000,1042
8.256000,2174
8.260000,2577
8.264000,2484
8.268000,3328
8.272000,2834
8.276000,2032
8.280000,220
8.284000,1023
8.288000,1409
8.292000,3327
8.296000,1571
8.300000,2031
8.304000,981
8.308000,1006
8.312000,2749
8.316000,1518
8.320000,1770
8.324000,2030
8.328000,1031
8.332000,2303
8.336000,1807
8.340000,2303
8.344000,3091
8.348000,2559
8.352000,1049
8.356000,2559
8.360000,33
8.364000,2815
8.368000,3376
8.372000,3071
8.376000,1088
8.380000,3327
8.384000,346
8.388000,3839
8.392000,3703
8.396000,255
8.400000,3478
8.404000,767
8.408000,4021
8.412000,1279
8.416000,985
8.420000,1791
8.424000,2041
8.428000,2063
8.432000,285
8.436000,2560
8.440000,817
8.444000,2816
8.448000,3647
8.452000,3072
8.456000,68
8.460000,3072
8.464000,72
8.468000,3072
8.472000,1097
8.476000,3072
8.480000,1612
8.484000,3072
8.488000,1614
8.492000,3072
8.496000,331
8.500000,3072
8.504000,2886
8.508000,3072
8.512000,3652
8.516000,3072
8.520000,1608
8.524000,3072
8.528000,3675
8.532000,3584
8.536000,2671
8.540000,3840
8.544000,3960
8.548000,0
8.552000,2455
8.556000,512
8.560000,1188
8.564000,256
8.568000,3986
8.572000,0
8.576000,2178
8.580000,0
8.584000,1404
8.588000,3584
8.592000,2643
8.596000,2816
8.600000,3346
8.604000,2032
8.608000,2022
8.612000,1535
8.616000,3289
8.620000,1535
8.624000,1743
8.628000,1279
8.632000,1230
8.636000,1279
8.640000,714
8.644000,1279
8.648000,1226
8.652000,1279
8.656000,3790
8.660000,1535
8.664000,2524
8.668000,1791
8.672000,484
8.676000,1791
8.680000,2283
8.684000,2047
8.688000,2286
8.692000,2047
8.696000,243
8.700000,2047
8.704000,504
8.708000,2047
8.712000,2560
8.716000,2048
8.720000,2567
8.724000,2304
8.728000,2858
8.732000,3328
8.736000,2710
8.740000,1792
8.744000,3686
8.748000,1297
8.752000,3373
8.756000,3618
8.760000,1933
8.764000,290
8.768000,3724
8.772000,3362
8.776000,3859
8.780000,1042
8.784000,2412
8.788000,2065
8.792000,3727
8.796000,2816
8.800000,2826
8.804000,2032
8.808000,1503
8.812000,1023
8.816000,3216
8.820000,3839
8.824000,3131
8.828000,2559
8.832000,2031
8.836000,1518
8.840000,1253
8.844000,2030
8.848000,2063
8.852000,2815
8.856000,37
8.860000,2815
8.864000,1323
8.868000,2815
8.872000,808
8.876000,2815
8.880000,3632
8.884000,3071
8.888000,2106
8.892000,3327
8.896000,3144
8.900000,3583
8.904000,348
8.908000,3839
8.912000,2932
8.916000,255
8.920000,1424
8.924000,511
8.928000,1963
8.932000,1023
8.936000,1743
8.940000,1535
8.944000,3056
8.948000,2063
8.952000,1298
8.956000,2304
8.960000,3626
8.964000,2816
8.968000,2366
8.972000,3072
8.976000,838
8.980000,3072
8.984000,2896
8.988000,3328
8.992000,85
8.996000,3328
9.000000,3672
9.004000,3328
9.008000,2901
9.012000,3328
9.016000,2899
9.020000,3328
9.024000,846
9.028000,3072
9.032000,329
9.036000,3072
9.040000,3140
9.044000,3072
9.048000,3403
9.052000,3328
9.056000,864
9.060000,3584
9.064000,3442
9.068000,3840
9.072000,380
9.076000,0
9.080000,1942
9.084000,256
9.088000,2465
9.092000,512
9.096000,412
9.100000,256
9.104000,3213
9.108000,0
9.112000,1404
9.116000,3584
9.120000,2385
9.124000,2816
9.128000,3346
9.132000,2032
9.136000,2531
9.140000,1535
9.144000,2506
9.148000,1279
9.152000,1983
9.156000,1023
9.160000,1473
9.164000,1023
9.168000,1469
9.172000,1023
9.176000,3519
9.180000,1279
9.184000,1225
9.188000,1279
9.192000,1999
9.196000,1279
9.200000,468
9.204000,1535
9.208000,2527
9.212000,1791
9.216000,228
9.220000,1791
9.224000,1769
9.228000,1791
9.232000,3569
9.236000,2047
9.240000,2806
9.244000,2063
9.248000,1287
9.252000,2048
9.256000,2332
9.260000,3072
9.264000,2690
9.268000,1536
9.272000,591
9.276000,785
9.280000,3853
9.284000,3106
9.288000,3949
9.292000,34
9.296000,2948
9.300000,3618
9.304000,1330
9.308000,1810
9.312000,4026
9.316000,3601
9.320000,2050
9.324000,769
9.328000,3463
9.332000,3840
9.336000,2392
9.340000,2560
9.344000,1490
9.348000,255
9.352000,1620
9.356000,2559
9.360000,3569
9.364000,1518
9.368000,3543
9.372000,1774
9.376000,3831
9.380000,2302
9.384000,3086
9.388000,2559
9.392000,795
9.396000,2559
9.400000,3606
9.404000,2559
9.408000,2331
9.412000,2815
9.416000,2088
9.420000,3071
9.424000,1331
9.428000,3071
9.432000,3914
9.436000,3583
9.440000,1889
9.444000,3839
9.448000,1406
9.452000,255
9.456000,922
9.460000,767
9.464000,1212
9.468000,1279
9.472000,988
9.476000,1791
9.480000,1792
9.484000,2048
9.488000,3356
9.492000,2560
9.496000,305
9.500000,2816
9.504000,2366
9.508000,3072
9.512000,1096
9.516000,3072
9.520000,1614
9.524000,3072
9.528000,2897
9.532000,3328
9.536000,1617
9.540000,3072
9.544000,844
9.548000,3072
9.552000,3145
9.556000,3072
9.560000,2371
9.564000,3072
9.568000,1857
9.572000,2816
9.576000,2367
9.580000,3072
9.584000,2121
9.588000,3328
9.592000,2905
9.596000,3584
9.600000,2925
9.604000,3840
9.608000,1407
9.612000,0
9.616000,1946
9.620000,256
9.624000,414
9.628000,256
9.632000,1170
9.636000,0
9.640000,2181
9.644000,0
9.648000,3448
9.652000,3584
9.656000,3912
9.660000,2560
9.664000,3599
9.668000,2032
9.672000,3049
9.676000,1791
9.680000,990
9.684000,1535
9.688000,3799
9.692000,1535
9.696000,3286
9.700000,1535
9.704000,2770
9.708000,1535
9.712000,4054
9.716000,1535
9.720000,987
9.724000,1535
9.728000,2014
9.732000,1535
9.736000,3043
9.740000,1791
9.744000,486
9.748000,1791
9.752000,1259
9.756000,1791
9.760000,2288
9.764000,2047
9.768000,3057
9.772000,2047
9.776000,245
9.780000,2047
9.784000,512
9.788000,2048
9.792000,287
9.796000,3072
9.800000,3474
9.804000,1792
9.808000,2407
9.812000,1297
9.816000,1055
9.820000,3106
9.824000,109
9.828000,3874
9.832000,606
9.836000,2594
9.840000,1769
9.844000,273
9.848000,3391
9.852000,1281
9.856000,102
9.860000,2304
9.864000,3827
9.868000,1791
9.872000,207
9.876000,767
9.880000,1398
9.884000,3327
9.888000,291
9.892000,2031
9.896000,727
9.900000,1262
9.904000,211
9.908000,1774
9.912000,506
9.916000,2302
9.920000,2831
9.924000,2559
9.928000,280
9.932000,2559
9.936000,25
9.940000,2559
9.944000,2332
9.948000,2815
9.952000,1320
9.956000,2815
9.960000,1845
9.964000,3071
9.968000,3916
9.972000,3583
9.976000,3687
9.980000,4095
9.984000,2180
9.988000,511
9.992000,1950
9.996000,767
10.000000,2497
10.004000,1535
10.008000,1247
10.012000,1791
10.016000,1280
10.020000,2048
10.024000,3352
10.028000,2560
10.032000,3631
10.036000,2816
10.040000,1591
10.044000,2816
10.048000,1855
10.052000,2816
10.056000,3137
10.060000,3072
10.064000,68
10.068000,3072
10.072000,3140
10.076000,3072
10.080000,2371
10.084000,3072
10.088000,318
10.092000,2816
10.096000,3127
10.100000,2816
10.104000,3890
10.108000,2816
10.112000,1603
10.116000,3072
10.120000,3419
10.124000,3584
10.128000,3949
10.132000,3840
10.136000,1154
10.140000,0
10.144000,3732
10.148000,256
10.152000,3215
10.156000,0
10.160000,2940
10.164000,3840
10.168000,2667
10.172000,3584
10.176000,3152
10.180000,2816
10.184000,2325
10.188000,2032
10.192000,4057
10.196000,1279
10.200000,3261
10.204000,1023
10.208000,941
10.212000,767
10.216000,685
10.220000,767
10.224000,3493
10.228000,767
10.232000,4005
10.236000,767
10.240000,935
10.244000,767
10.248000,3504
10.252000,1023
10.256000,183
10.260000,1023
10.264000,1210
10.268000,1023
10.272000,2749
10.276000,1279
10.280000,709
10.284000,1279
10.288000,1740
10.292000,1279
10.296000,3279
10.300000,1535
10.304000,4054
10.308000,1535
10.312000,3806
10.316000,1791
10.320000,246
10.324000,2319
10.328000,853
10.332000,512
10.336000,1044
10.340000,3857
10.344000,210
10.348000,2081
10.352000,1066
10.356000,2850
10.360000,2865
10.364000,2082
10.368000,455
10.372000,17
10.376000,1858
10.380000,1537
10.384000,406
10.388000,2816
10.392000,20
10.396000,2048
10.400000,2035
10.404000,1279
10.408000,2714
10.412000,3839
10.416000,2875
10.420000,2559
10.424000,1506
10.428000,1006
10.432000,3766
10.436000,1262
10.440000,2783
10.444000,2030
10.448000,2812
10.452000,2302
10.456000,3842
10.460000,2303
10.464000,1547
10.468000,2303
10.472000,1806
10.476000,2303
10.480000,788
10.484000,2559
10.488000,803
10.492000,2815
10.496000,3384
10.500000,3327
10.504000,1103
10.508000,3583
10.512000,361
10.516000,4095
10.520000,907
10.524000,511
10.528000,1965
10.532000,1023
10.536000,1231
10.540000,1535
10.544000,233
10.548000,2047
10.552000,3339
10.556000,2304
10.560000,3871
10.564000,2560
10.568000,2606
10.572000,2816
10.576000,1081
10.580000,2816
10.584000,1596
10.588000,2816
10.592000,1852
10.596000,2816
10.600000,3654
10.604000,3072
10.608000,1859
10.612000,2816
10.616000,3643
10.620000,2816
10.624000,3122
10.628000,2816
10.632000,3892
10.636000,2816
10.640000,3132
10.644000,3072
10.648000,1611
10.652000,3072
10.656000,336
10.660000,3328
10.664000,2149
10.668000,3840
10.672000,3450
10.676000,0
10.680000,1165
10.684000,0
10.688000,1157
10.692000,3840
10.696000,2163
10.700000,3840
10.704000,3437
10.708000,3584
10.712000,854
10.716000,2816
10.720000,1557
10.724000,1776
10.728000,2011
10.732000,1279
10.736000,2759
10.740000,1279
10.744000,2754
10.748000,1279
10.752000,1985
10.756000,1023
10.760000,1981
10.764000,1023
10.768000,2754
10.772000,1279
10.776000,3522
10.780000,1279
10.784000,1226
10.788000,1279
10.792000,2767
10.796000,1535
10.800000,471
10.804000,1535
10.808000,2011
10.812000,1535
10.816000,3299
10.820000,1791
10.824000,228
10.828000,1791
10.832000,1771
10.836000,1791
10.840000,3056
10.844000,2047
10.848000,3571
10.852000,2063
10.856000,1815
10.860000,2816
10.864000,3204
10.868000,1536
10.872000,1106
10.876000,785
10.880000,3085
10.884000,3106
10.888000,874
10.892000,3874
10.896000,1899
10.900000,2850
10.904000,3078
10.908000,1042
10.912000,3951
10.916000,2065
10.920000,1945
10.924000,2816
10.928000,3352
10.932000,2048
10.936000,993
10.940000,767
10.944000,1391
10.948000,3071
10.952000,1814
10.956000,1775
10.960000,2510
10.964000,1262
10.968000,2251
10.972000,1774
10.976000,3317
10.980000,2302
10.984000,1033
10.988000,2303
10.992000,1807
10.996000,2303
11.000000,2321
11.004000,2559
11.008000,3603
11.012000,2559
11.016000,2076
11.020000,2815
11.024000,2085
11.028000,3071
11.032000,3386
11.036000,3327
11.040000,1359
11.044000,3583
11.048000,1134
11.052000,4095
11.056000,1419
11.060000,511
11.064000,1453
11.068000,1023
11.072000,970
11.076000,1535
11.080000,2283
11.084000,2063
11.088000,3851
11.092000,2304
11.096000,289
11.100000,2560
11.104000,2350
11.108000,2816
11.112000,3636
11.116000,2816
11.120000,313
11.124000,2816
11.128000,827
11.132000,2816
11.136000,3899
11.140000,2816
11.144000,825
11.148000,2816
11.152000,3129
11.156000,2816
11.160000,3636
11.164000,2816
11.168000,310
11.172000,2816
11.176000,3647
11.180000,3072
11.184000,80
11.188000,3328
11.192000,608
11.196000,3584
11.200000,1907
11.204000,3840
11.208000,2697
11.212000,256
11.216000,3985
11.220000,0
11.224000,2684
11.228000,3840
11.232000,2666
11.236000,3584
11.240000,2901
11.244000,3072
11.248000,3879
11.252000,2048
11.256000,1251
11.260000,1279
11.264000,3261
11.268000,1023
11.272000,4011
11.276000,767
11.280000,3493
11.284000,767
11.288000,2725
11.292000,767
11.296000,2722
11.300000,767
11.304000,2978
11.308000,767
11.312000,2218
11.316000,1023
11.320000,3250
11.324000,1023
11.328000,1976
11.332000,1023
11.336000,4036
11.340000,1279
11.344000,1740
11.348000,1279
11.352000,2769
11.356000,1535
11.360000,1239
11.364000,1535
11.368000,3297
11.372000,1791
11.376000,1257
11.380000,1791
11.384000,758
11.388000,2063
11.392000,3369
11.396000,3584
11.400000,3771
11.404000,2576
11.408000,2453
11.412000,1809
11.416000,2093
11.420000,3362
11.424000,867
11.428000,3362
11.432000,306
11.436000,1810
11.440000,2740
11.444000,3601
11.448000,2815
11.452000,256
11.456000,50
11.460000,2032
11.464000,735
11.468000,1279
11.472000,936
11.476000,4095
11.480000,1359
11.484000,2815
11.488000,3079
11.492000,1775
11.496000,2254
11.500000,1518
11.504000,2527
11.508000,2030
11.512000,1538
11.516000,2303
11.520000,3603
11.524000,2559
11.528000,1051
11.532000,2559
11.536000,2336
11.540000,2815
11.544000,38
11.548000,2815
11.552000,2605
11.556000,3071
11.560000,59
11.564000,3327
11.568000,1364
11.572000,3583
11.576000,362
11.580000,4095
11.584000,137
11.588000,511
11.592000,1192
11.596000,1023
11.600000,972
11.604000,1535
11.608000,2281
11.612000,2063
11.616000,13
11.620000,2304
11.624000,287
11.628000,2560
11.632000,3119
11.636000,2816
11.640000,823
11.644000,2816
11.648000,1083
11.652000,2816
11.656000,1851
11.660000,2816
11.664000,1855
11.668000,2816
11.672000,830
11.676000,2816
11.680000,3895
11.684000,2816
11.688000,3639
11.692000,2816
11.696000,2354
11.700000,2816
11.704000,306
11.708000,2816
11.712000,1603
11.716000,3072
11.720000,1366
11.724000,3328
11.728000,2150
11.732000,3840
11.736000,3453
11.740000,0
11.744000,652
11.748000,0
11.752000,1927
11.756000,3840
11.760000,2936
11.764000,3840
11.768000,2671
11.772000,3584
11.776000,3152
11.780000,2816
11.784000,1556
11.788000,1776
11.792000,727
11.796000,1279
11.800000,193
11.804000,1023
11.808000,4023
11.812000,1023
11.816000,3255
11.820000,1023
11.824000,3506
11.828000,1023
11.832000,1980
11.836000,1023
11.840000,2751
11.844000,1279
11.848000,3266
11.852000,1279
11.856000,709
11.860000,1279
11.864000,3794
11.868000,1535
11.872000,4054
11.876000,1535
11.880000,983
11.884000,1535
11.888000,3809
11.892000,1791
11.896000,1001
11.900000,1791
11.904000,235
11.908000,1791
11.912000,2281
11.916000,2047
11.920000,3330
11.924000,2304
11.928000,321
11.932000,0
11.936000,4072
11.940000,3344
11.944000,188
11.948000,2081
11.952000,825
11.956000,3362
11.960000,3698
11.964000,3618
11.968000,2113
11.972000,2338
11.976000,980
11.980000,17
11.984000,1587
11.988000,1025
11.992000,2948
11.996000,3584
12.000000,2387
12.004000,2816
12.008000,752
12.012000,767
12.016000,2665
12.020000,3071
12.024000,3582
12.028000,1518
12.032000,193
12.036000,1262
12.040000,4055
12.044000,1774
12.048000,4081
12.052000,2030
12.056000,503
12.060000,2030
12.064000,2812
12.068000,2302
12.072000,1799
12.076000,2303
12.080000,3091
12.084000,2559
12.088000,1046
12.092000,2559
12.096000,41
12.100000,3071
12.104000,1347
12.108000,3327
12.112000,2647
12.116000,3839
12.120000,2159
12.124000,255
12.128000,2961
12.132000,767
12.136000,1968
12.140000,1023
12.144000,3282
12.148000,1791
12.152000,2291
12.156000,2063
12.160000,3082
12.164000,2304
12.168000,2588
12.172000,2560
12.176000,1577
12.180000,2560
12.184000,3636
12.188000,2816
12.192000,311
12.196000,2816
12.200000,3897
12.204000,2816
12.208000,3126
12.212000,2816
12.216000,3895
12.220000,2816
12.224000,2612
12.228000,2816
12.232000,1585
12.236000,2560
12.240000,1577
12.244000,2560
12.248000,818
12.252000,2816
12.256000,833
12.260000,3072
12.264000,80
12.268000,3328
12.272000,1890
12.276000,3584
12.280000,2172
12.284000,0
12.288000,3967
12.292000,3840
12.296000,623
12.300000,3584
12.304000,1637
12.308000,3328
12.312000,337
12.316000,2816
12.320000,2068
12.324000,2032
12.328000,4057
12.332000,1279
12.336000,3517
12.340000,1023
12.344000,944
12.348000,767
12.352000,170
12.356000,767
12.360000,4008
12.364000,767
12.368000,680
12.372000,767
12.376000,2735
12.380000,1023
12.384000,4021
12.388000,1023
12.392000,1208
12.396000,1023
12.400000,2751
12.404000,1279
12.408000,709
12.412000,1279
12.416000,2511
12.420000,1535
12.424000,470
12.428000,1535
12.432000,2012
12.436000,1535
12.440000,2014
12.444000,1535
12.448000,484
12.452000,1791
12.456000,1523
12.460000,2063
12.464000,1083
12.468000,3840
12.472000,2000
12.476000,2832
12.480000,1706
12.484000,1809
12.488000,823
12.492000,3362
12.496000,875
12.500000,3362
12.504000,1578
12.508000,1554
12.512000,1189
12.516000,3089
12.520000,2786
12.524000,3840
12.528000,2077
12.532000,2032
12.536000,1249
12.540000,1279
12.544000,426
12.548000,4095
12.552000,336
12.556000,2815
12.560000,514
12.564000,1519
12.568000,968
12.572000,1262
12.576000,480
12.580000,2030
12.584000,2313
12.588000,2559
12.592000,278
12.596000,2559
12.600000,1564
12.604000,2559
12.608000,2334
12.612000,2815
12.616000,806
12.620000,2815
12.624000,3630
12.628000,3071
12.632000,1090
12.636000,3327
12.640000,3157
12.644000,3839
12.648000,2931
12.652000,255
12.656000,2704
12.660000,767
12.664000,2738
12.668000,1279
12.672000,3026
12.676000,1791
12.680000,243
12.684000,2063
12.688000,1300
12.692000,2304
12.696000,1831
12.700000,2560
12.704000,1078
12.708000,2816
12.712000,67
12.716000,3072
12.720000,328
12.724000,3072
12.728000,843
12.732000,3072
12.736000,3657
12.740000,3072
12.744000,3142
12.748000,3072
12.752000,1601
12.756000,2816
12.760000,830
12.764000,2816
12.768000,825
12.772000,2816
12.776000,1089
12.780000,3072
12.784000,2905
12.788000,3584
12.792000,2923
12.796000,3840
12.800000,3965
12.804000,0
12.808000,402
12.812000,256
12.816000,3226
12.820000,256
12.824000,2697
12.828000,0
12.832000,2940
12.836000,3840
12.840000,2918
12.844000,3328
12.848000,57
12.852000,2304
12.856000,3833
12.860000,1791
12.864000,2521
12.868000,1535
12.872000,3273
12.876000,1279
12.880000,3268
12.884000,1279
12.888000,2498
12.892000,1279
12.896000,2753
12.900000,1279
12.904000,2498
12.908000,1279
12.912000,452
12.916000,1279
12.920000,1228
12.924000,1279
12.928000,2767
12.932000,1535
12.936000,3286
12.940000,1535
12.944000,1239
12.948000,1535
12.952000,2527
12.956000,1791
12.960000,2531
12.964000,1791
12.968000,2015
12.972000,1535
12.976000,3297
12.980000,1791
12.984000,492
12.988000,2047
12.992000,276
12.996000,2816
13.000000,124
13.004000,1280
13.008000,837
13.012000,529
13.016000,2038
13.020000,2337
13.024000,1847
13.028000,2850
13.032000,1060
13.036000,1554
13.040000,427
13.044000,3601
13.048000,1561
13.052000,769
13.056000,606
13.060000,2304
13.064000,2297
13.068000,2047
13.072000,3548
13.076000,1023
13.080000,2177
13.084000,3583
13.088000,3361
13.092000,2031
13.096000,462
13.100000,1006
13.104000,1467
13.108000,1262
13.112000,4068
13.116000,2030
13.120000,2815
13.124000,2302
13.128000,3846
13.132000,2303
13.136000,263
13.140000,2303
13.144000,3087
13.148000,2559
13.152000,2073
13.156000,2815
13.160000,2088
13.164000,3071
13.168000,2874
13.172000,3327
13.176000,1359
13.180000,3583
13.184000,364
13.188000,4095
13.192000,1419
13.196000,511
13.200000,1968
13.204000,1023
13.208000,2511
13.212000,1791
13.216000,3057
13.220000,2063
13.224000,3083
13.228000,2304
13.232000,287
13.236000,2560
13.240000,2604
13.244000,2816
13.248000,2363
13.252000,3072
13.256000,3654
13.260000,3072
13.264000,2883
13.268000,3072
13.272000,3652
13.276000,3072
13.280000,3654
13.284000,3072
13.288000,1087
13.292000,2816
13.296000,1598
13.300000,2816
13.304000,1083
13.308000,2816
13.312000,3647
13.316000,3072
13.320000,334
13.324000,3328
13.328000,3682
13.332000,3584
13.336000,621
13.340000,3840
13.344000,2698
13.348000,256
13.352000,1426
13.356000,0
13.360000,1157
13.364000,3840
13.368000,1907
13.372000,3584
13.376000,1645
13.380000,3328
13.384000,1862
13.388000,2304
13.392000,1784
13.396000,1535
13.400000,1994
13.404000,1023
13.408000,4026
13.412000,1023
13.416000,4024
13.420000,1023
13.424000,3250
13.428000,1023
13.432000,4023
13.436000,1023
13.440000,3252
13.444000,1023
13.448000,3258
13.452000,1279
13.456000,455
13.460000,1279
13.464000,1225
13.468000,1279
13.472000,3279
13.476000,1535
13.480000,471
13.484000,1535
13.488000,2012
13.492000,1535
13.496000,486
13.500000,1791
13.504000,1259
13.508000,1791
13.512000,3569
13.516000,2047
13.520000,3576
13.524000,2063
13.528000,2330
13.532000,3072
13.536000,2181
13.540000,1536
13.544000,1104
13.548000,785
13.552000,3856
13.556000,3106
13.560000,3952
13.564000,34
13.568000,3197
13.572000,3362
13.576000,1824
13.580000,1298
13.584000,400
13.588000,2577
13.592000,2747
13.596000,3584
13.600000,1076
13.604000,2304
13.608000,3318
13.612000,1279
13.616000,2182
13.620000,3583
13.624000,1829
13.628000,2031
13.632000,219
13.636000,1262
13.640000,2763
13.644000,1774
13.648000,4087
13.652000,2302
13.656000,3086
13.660000,2559
13.664000,1049
13.668000,2559
13.672000,1052
13.676000,2559
13.680000,2848
13.684000,2815
13.688000,1318
13.692000,2815
13.696000,2102
13.700000,3327
13.704000,3144
13.708000,3583
13.712000,2402
13.716000,4095
13.720000,1664
13.724000,255
13.728000,2206
13.732000,1023
13.736000,2498
13.740000,1535
13.744000,3043
13.748000,2047
13.752000,2053
13.756000,2304
13.760000,3357
13.764000,2560
13.768000,2606
13.772000,2816
13.776000,3134
13.780000,3072
13.784000,841
13.788000,3072
13.792000,331
13.796000,3072
13.800000,3144
13.804000,3072
13.808000,2367
13.812000,3072
13.816000,1599
13.820000,2816
13.824000,3641
13.828000,2816
13.832000,2610
13.836000,2816
13.840000,2607
13.844000,2816
13.848000,2873
13.852000,3072
13.856000,3660
13.860000,3328
13.864000,3421
13.868000,3584
13.872000,1391
13.876000,3840
13.880000,2698
13.884000,256
13.888000,399
13.892000,0
13.896000,1924
13.900000,3840
13.904000,2938
13.908000,3840
13.912000,2406
13.916000,3328
13.920000,3124
13.924000,2304
13.928000,248
13.932000,1791
13.936000,4060
13.940000,1535
13.944000,2774
13.948000,1535
13.952000,1746
13.956000,1279
13.960000,1231
13.964000,1279
13.968000,2769
13.972000,1535
13.976000,3794
13.980000,1535
13.984000,2518
13.988000,1535
13.992000,3794
13.996000,1535
14.000000,1753
14.004000,1535
14.008000,3297
14.012000,1791
14.016000,1000
14.020000,1791
14.024000,1771
14.028000,1791
14.032000,3056
14.036000,2047
14.040000,3056
14.044000,2047
14.048000,2806
14.052000,2063
14.056000,1803
14.060000,2304
14.064000,2627
14.068000,0
14.072000,4059
14.076000,3088
14.080000,2992
14.084000,2081
14.088000,2878
14.092000,3618
14.096000,634
14.100000,3618
14.104000,826
14.108000,1810
14.112000,1973
14.116000,3345
14.120000,1529
14.124000,0
14.128000,3380
14.132000,2048
14.136000,2537
14.140000,1535
14.144000,1707
14.148000,4095
14.152000,2133
14.156000,3071
14.160000,527
14.164000,1775
14.168000,215
14.172000,1518
14.176000,2540
14.180000,2302
14.184000,1043
14.188000,2559
14.192000,3361
14.196000,2815
14.200000,809
14.204000,2815
14.208000,2093
14.212000,3071
14.216000,565
14.220000,3071
14.224000,2619
14.228000,3327
14.232000,3404
14.236000,3583
14.240000,1119
14.244000,3839
14.248000,379
14.252000,255
14.256000,150
14.260000,767
14.264000,696
14.268000,1279
14.272000,985
14.276000,1791
14.280000,1529
14.284000,2063
14.288000,3098
14.292000,2560
14.296000,3886
14.300000,2816
14.304000,1854
14.308000,2816
14.312000,70
14.316000,3072
14.320000,329
14.324000,3072
14.328000,1099
14.332000,3072
14.336000,844
14.340000,3072
14.344000,3657
14.348000,3072
14.352000,1601
14.356000,2816
14.360000,3899
14.364000,2816
14.368000,3639
14.372000,2816
14.376000,2876
14.380000,3072
14.384000,2892
14.388000,3328
14.392000,2137
14.396000,3584
14.400000,1894
14.404000,3584
14.408000,3450
14.412000,0
14.416000,2697
14.420000,0
14.424000,1912
14.428000,3584
14.432000,3691
14.436000,3584
14.440000,345
14.444000,3072
14.448000,2094
14.452000,2304
14.456000,2025
14.460000,1279
14.464000,2751
14.468000,1023
14.472000,2986
14.476000,767
14.480000,1437
14.484000,511
14.488000,1693
14.492000,511
14.496000,3488
14.500000,767
14.504000,935
14.508000,767
14.512000,1458
14.516000,1023
14.520000,3524
14.524000,1279
14.528000,1737
14.532000,1279
14.536000,2770
14.540000,1535
14.544000,983
14.548000,1535
14.552000,3039
14.556000,1791
14.560000,1259
14.564000,1791
14.568000,1259
14.572000,1791
14.576000,1771
14.580000,1791
14.584000,755
14.588000,2063
14.592000,2855
14.596000,3328
14.600000,2454
14.604000,1792
14.608000,3423
14.612000,1041
14.616000,3095
14.620000,3106
14.624000,2915
14.628000,3874
14.632000,1891
14.636000,2850
14.640000,3850
14.644000,1298
14.648000,3472
14.652000,2833
14.656000,3278
14.660000,0
14.664000,358
14.668000,3328
14.672000,311
14.676000,2032
14.680000,2994
14.684000,4095
14.688000,315
14.692000,2303
14.696000,3807
14.700000,1262
14.704000,3014
14.708000,1518
14.712000,3301
14.716000,2030
14.720000,1274
14.724000,2030
14.728000,1790
14.732000,2030
14.736000,2561
14.740000,2303
14.744000,3847
14.748000,2303
14.752000,1803
14.756000,2303
14.760000,3353
14.764000,2815
14.768000,1331
14.772000,3071
14.776000,3914
14.780000,3583
14.784000,3174
14.788000,4095
14.792000,3459
14.796000,511
14.800000,4005
14.804000,1023
14.808000,3781
14.812000,1535
14.816000,2531
14.820000,2047
14.824000,2048
14.828000,2304
14.832000,3100
14.836000,2560
14.840000,1833
14.844000,2560
14.848000,3122
14.852000,2816
14.856000,3634
14.860000,2816
14.864000,313
14.868000,2816
14.872000,3126
14.876000,2816
14.880000,1585
14.884000,2560
14.888000,3882
14.892000,2560
14.896000,3109
14.900000,2560
14.904000,1825
14.908000,2304
14.912000,3359
14.916000,2560
14.920000,3116
14.924000,2816
14.928000,319
14.932000,3072
14.936000,3664
14.940000,3328
14.944000,2917
14.948000,3840
14.952000,2175
14.956000,0
14.960000,3965
14.964000,3840
14.968000,1907
14.972000,3584
14.976000,3693
14.980000,3584
14.984000,1880
14.988000,2816
14.992000,3873
14.996000,2048
15.000000,2544
15.004000,1791
15.008000,3801
15.012000,1535
15.016000,2514
15.020000,1535
15.024000,2769
15.028000,1535
15.032000,3796
15.036000,1535
15.040000,4054
15.044000,1535
15.048000,985
15.052000,1535
15.056000,1755
15.060000,1535
15.064000,3297
15.068000,1791
15.072000,1768
15.076000,1791
15.080000,3056
15.084000,2047
15.088000,246
15.092000,2047
15.096000,3328
15.100000,2048
15.104000,520
15.108000,2048
15.112000,1803
15.116000,2048
15.120000,3093
15.124000,2560
15.128000,65
15.132000,3840
15.136000,2762
15.140000,2832
15.144000,1696
15.148000,1809
15.152000,3390
15.156000,3618
15.160000,1922
15.164000,3874
15.168000,2649
15.172000,2594
15.176000,991
15.180000,17
15.184000,3109
15.188000,769
15.192000,3920
15.196000,2304
15.200000,1539
15.204000,1776
15.208000,1742
15.212000,511
15.216000,3951
15.220000,3327
15.224000,288
15.228000,2031
15.232000,2264
15.236000,1518
15.240000,2779
15.244000,2030
15.248000,2311
15.252000,2559
15.256000,20
15.260000,2559
15.264000,2075
15.268000,2815
15.272000,2848
15.276000,2815
15.280000,293
15.284000,2815
15.288000,2861
15.292000,3071
15.296000,573
15.300000,3327
15.304000,2645
15.308000,3839
15.312000,2415
15.316000,255
15.320000,1680
15.324000,511
15.328000,1965
15.332000,1023
15.336000,1743
15.340000,1535
15.344000,3056
15.348000,2063
15.352000,528
15.356000,2304
15.360000,2341
15.364000,2816
15.368000,1851
15.372000,2816
15.376000,68
15.380000,3072
15.384000,1097
15.388000,3072
15.392000,1612
15.396000,3072
15.400000,1100
15.404000,3072
15.408000,843
15.412000,3072
15.416000,3145
15.420000,3072
15.424000,830
15.428000,2816
15.432000,1083
15.436000,2816
15.440000,63
15.444000,3072
15.448000,334
15.452000,3328
15.456000,608
15.460000,3584
15.464000,626
15.468000,3840
15.472000,3205
15.476000,256
15.480000,2462
15.484000,512
15.488000,1433
15.492000,0
15.496000,2183
15.500000,0
15.504000,888
15.508000,3584
15.512000,3165
15.516000,3072
15.520000,807
15.524000,2048
15.528000,3059
15.532000,1791
15.536000,726
15.540000,1279
15.544000,1988
15.548000,1023
15.552000,1215
15.556000,1023
15.560000,1212
15.564000,1023
15.568000,1981
15.572000,1023
15.576000,2753
15.580000,1279
15.584000,4037
15.588000,1279
15.592000,1738
15.596000,1279
15.600000,4052
15.604000,1535
15.608000,1755
15.612000,1535
15.616000,2527
15.620000,1791
15.624000,3297
15.628000,1791
15.632000,1000
15.636000,1791
15.640000,2539
15.644000,2047
15.648000,760
15.652000,2063
15.656000,1569
15.660000,3072
15.664000,663
15.668000,1792
15.672000,3172
15.676000,1041
15.680000,1029
15.684000,2594
15.688000,2369
15.692000,3106
15.696000,31
15.700000,1554
15.704000,1959
15.708000,3345
15.712000,3599
15.716000,769
15.720000,1117
15.724000,2304
15.728000,7
15.732000,2032
15.736000,228
15.740000,1023
15.744000,648
15.748000,3583
15.752000,310
15.756000,2303
15.760000,736
15.764000,1262
15.768000,2766
15.772000,1774
15.776000,1018
15.780000,2302
15.784000,2831
15.788000,2559
15.792000,790
15.796000,2559
15.800000,2080
15.804000,2815
15.808000,2849
15.812000,2815
15.816000,2086
15.820000,3071
15.824000,2616
15.828000,3327
15.832000,333
15.836000,3583
15.840000,2402
15.844000,4095
15.848000,1408
15.852000,255
15.856000,2203
15.860000,1023
15.864000,453
15.868000,1535
15.872000,233
15.876000,2047
15.880000,10
15.884000,2304
15.888000,1570
15.892000,2560
15.896000,2361
15.900000,3072
15.904000,3652
15.908000,3072
15.912000,840
15.916000,3072
15.920000,2896
15.924000,3328
15.928000,2389
15.932000,3328
15.936000,1100
15.940000,3072
15.944000,83
15.948000,3328
15.952000,2133
15.956000,3328
15.960000,3659
15.964000,3072
15.968000,1603
15.972000,2816
15.976000,62
15.980000,3072
15.984000,339
15.988000,3328
15.992000,2651
15.996000,3584
16.000000,2150
16.004000,3840
16.008000,637
16.012000,0
16.016000,404
16.020000,256
16.024000,2454
16.028000,256
16.032000,3468
16.036000,0
16.040000,639
16.044000,3840
16.048000,367
16.052000,3328
16.056000,1852
16.060000,2304
16.064000,1027
16.068000,1776
16.072000,3292
16.076000,1535
16.080000,1231
16.084000,1279
16.088000,4042
16.092000,1279
16.096000,3524
16.100000,1279
16.104000,1737
16.108000,1279
16.112000,3794
16.116000,1535
16.120000,3796
16.124000,1535
16.128000,2524
16.132000,1791
16.136000,3814
16.140000,1791
16.144000,489
16.148000,1791
16.152000,489
16.156000,1791
16.160000,3052
16.164000,2047
16.168000,246
16.172000,2047
16.176000,504
16.180000,2047
16.184000,3077
16.188000,2304
16.192000,2609
16.196000,3584
16.200000,177
16.204000,2320
16.208000,390
16.212000,1553
16.216000,3378
16.220000,3618
16.224000,3978
16.228000,290
16.232000,3202
16.236000,3362
16.240000,3098
16.244000,1298
16.248000,2939
16.252000,2321
16.256000,171
16.260000,3584
16.264000,3148
16.268000,2816
16.272000,3850
16.276000,1264
16.280000,2694
16.284000,3583
16.288000,549
16.292000,2031
16.296000,727
16.300000,1262
16.304000,211
16.308000,1774
16.312000,1020
16.316000,2302
16.320000,2319
16.324000,2559
16.328000,3604
16.332000,2559
16.336000,280
16.340000,2559
16.344000,2848
16.348000,2815
16.352000,1321
16.356000,2815
16.360000,1333
16.364000,3071
16.368000,2632
16.372000,3583
16.376000,1633
16.380000,3839
16.384000,1662
16.388000,255
16.392000,1438
16.396000,767
16.400000,1983
16.404000,1279
16.408000,1758
16.412000,1791
16.416000,1794
16.420000,2048
16.424000,3866
16.428000,2560
16.432000,3633
16.436000,2816
16.440000,1593
16.444000,2816
16.448000,2879
16.452000,3072
16.456000,3652
16.460000,3072
16.464000,329
16.468000,3072
16.472000,72
16.476000,3072
16.480000,3654
16.484000,3072
16.488000,1857
16.492000,2816
16.496000,316
16.500000,2816
16.504000,3895
16.508000,2816
16.512000,2363
16.516000,3072
16.520000,2377
16.524000,3328
16.528000,3677
16.532000,3584
16.536000,3437
16.540000,3840
16.544000,1154
16.548000,0
16.552000,1938
16.556000,0
16.560000,2698
16.564000,0
16.568000,3453
16.572000,3840
16.576000,3439
16.580000,3584
16.584000,3665
16.588000,2816
16.592000,21
16.596000,2032
16.600000,2787
16.604000,1535
16.608000,3274
16.612000,1279
16.616000,1473
16.620000,1023
16.624000,1210
16.628000,1023
16.632000,1981
16.636000,1023
16.640000,2751
16.644000,1279
16.648000,4037
16.652000,1279
16.656000,1225
16.660000,1279
16.664000,2767
16.668000,1535
16.672000,470
16.676000,1535
16.680000,2012
16.684000,1535
16.688000,3041
16.692000,1791
16.696000,1766
16.700000,1791
16.704000,3057
16.708000,2047
16.712000,2806
16.716000,2063
16.720000,3341
16.724000,2560
16.728000,3158
16.732000,512
16.736000,1035
16.740000,3857
16.744000,2782
16.748000,2593
16.752000,846
16.756000,3618
16.760000,3701
16.764000,3362
16.768000,1824
16.772000,1298
16.776000,3477
16.780000,2833
16.784000,3789
16.788000,3584
16.792000,2077
16.796000,2048
16.800000,2539
16.804000,1535
16.808000,4007
16.812000,4095
16.816000,2132
16.820000,3071
16.824000,3846
16.828000,1775
16.832000,3546
16.836000,1774
16.840000,1271
16.844000,2302
16.848000,2844
16.852000,2815
16.856000,806
16.860000,2815
16.864000,2093
16.868000,3071
16.872000,3632
16.876000,3071
16.880000,2107
16.884000,3327
16.888000,1349
16.892000,3327
16.896000,3159
16.900000,3839
16.904000,3950
16.908000,4095
16.912000,134
16.916000,511
16.920000,1194
16.924000,1023
16.928000,1998
16.932000,1535
16.936000,2800
16.940000,2063
16.944000,1296
16.948000,2304
16.952000,2602
16.956000,2816
16.960000,2363
16.964000,3072
16.968000,2121
16.972000,3328
16.976000,3667
16.980000,3328
16.984000,3672
16.988000,3328
16.992000,3669
16.996000,3328
17.000000,2902
17.004000,3328
17.008000,1102
17.012000,3072
17.016000,844
17.020000,3072
17.024000,3144
17.028000,3072
17.032000,1087
17.036000,2816
17.040000,1079
17.044000,2816
17.048000,319
17.052000,3072
17.056000,2129
17.060000,3584
17.064000,1896
17.068000,3584
17.072000,1907
17.076000,3840
17.080000,1417
17.084000,0
17.088000,1415
17.092000,3840
17.096000,1395
17.100000,3584
17.104000,1382
17.108000,3328
17.112000,1105
17.116000,2816
17.120000,29
17.124000,2032
17.128000,732
17.132000,1279
17.136000,3260
17.140000,1023
17.144000,2226
17.148000,1023
17.152000,1967
17.156000,767
17.160000,941
17.164000,767
17.168000,1455
17.172000,767
17.176000,3504
17.180000,1023
17.184000,696
17.188000,1023
17.192000,1210
17.196000,1023
17.200000,4033
17.204000,1279
17.208000,1996
17.212000,1279
17.216000,1999
17.220000,1279
17.224000,2508
17.228000,1535
17.232000,1236
17.236000,1535
17.240000,3295
17.244000,1791
17.248000,3560
17.252000,2047
17.256000,3600
17.260000,3072
17.264000,1689
17.268000,1792
17.272000,617
17.276000,1041
17.280000,1039
17.284000,2850
17.288000,3422
17.292000,3618
17.296000,1097
17.300000,2338
17.304000,3560
17.308000,529
17.312000,2396
17.316000,2065
17.320000,3747
17.324000,3584
17.328000,846
17.332000,2816
17.336000,3607
17.340000,1520
17.344000,661
17.348000,3583
17.352000,1317
17.356000,1775
17.360000,2497
17.364000,1006
17.368000,1467
17.372000,1262
17.376000,3547
17.380000,1774
17.384000,2026
17.388000,1774
17.392000,501
17.396000,2030
17.400000,4090
17.404000,2030
17.408000,3572
17.412000,2030
17.416000,3324
17.420000,2302
17.424000,2311
17.428000,2559
17.432000,1313
17.436000,2815
17.440000,58
17.444000,3327
17.448000,346
17.452000,3839
17.456000,2932
17.460000,255
17.464000,3475
17.468000,767
17.472000,1207
17.476000,1279
17.480000,219
17.484000,1791
17.488000,2289
17.492000,2063
17.496000,3853
17.500000,2304
17.504000,2332
17.508000,2560
17.512000,549
17.516000,2560
17.520000,2350
17.524000,2816
17.528000,3122
17.532000,2816
17.536000,3638
17.540000,2816
17.544000,3641
17.548000,2816
17.552000,1586
17.556000,2560
17.560000,556
17.564000,2560
17.568000,298
17.572000,2560
17.576000,1065
17.580000,2560
17.584000,306
17.588000,2816
17.592000,833
17.596000,3072
17.600000,341
17.604000,3328
17.608000,1890
17.612000,3584
17.616000,2684
17.620000,0
17.624000,1408
17.628000,3840
17.632000,2679
17.636000,3840
17.640000,107
17.644000,3584
17.648000,1630
17.652000,3072
17.656000,1839
17.660000,2048
17.664000,3820
17.668000,1535
17.672000,1989
17.676000,1023
17.680000,4026
17.684000,1023
17.688000,1970
17.692000,767
17.696000,2736
17.700000,1023
17.704000,3252
17.708000,1023
17.712000,183
17.716000,1023
17.720000,1210
17.724000,1023
17.728000,3521
17.732000,1279
17.736000,1996
17.740000,1279
17.744000,3796
17.748000,1535
17.752000,4055
17.756000,1535
17.760000,1755
17.764000,1535
17.768000,3039
17.772000,1791
17.776000,486
17.780000,1791
17.784000,2288
17.788000,2063
17.792000,3607
17.796000,3072
17.800000,1172
17.804000,1792
17.808000,3951
17.812000,1297
17.816000,2338
17.820000,3362
17.824000,3952
17.828000,3874
17.832000,345
17.836000,2594
17.840000,744
17.844000,273
17.848000,2869
17.852000,1025
17.856000,851
17.860000,2048
17.864000,2028
17.868000,1535
17.872000,1733
17.876000,511
17.880000,3950
17.884000,3327
17.888000,545
17.892000,2031
17.896000,216
17.900000,1262
17.904000,1998
17.908000,1518
17.912000,3316
17.916000,2302
17.920000,2318
17.924000,2559
17.928000,22
17.932000,2559
17.936000,1051
17.940000,2559
17.944000,3360
17.948000,2815
17.952000,1577
17.956000,2815
17.960000,2870
17.964000,3327
17.968000,3917
17.972000,3583
17.976000,3174
17.980000,4095
17.984000,3718
17.988000,511
17.992000,3493
17.996000,1023
18.000000,4039
18.004000,1535
18.008000,488
18.012000,2047
18.016000,528
18.020000,2304
18.024000,1572
18.028000,2560
18.032000,1076
18.036000,2816
18.040000,321
18.044000,3072
18.048000,2124
18.052000,3328
18.056000,2128
18.060000,3328
18.064000,2897
18.068000,3328
18.072000,846
18.076000,3072
18.080000,72
18.084000,3072
18.088000,70
18.092000,3072
18.096000,72
18.100000,3072
18.104000,3140
18.108000,3072
18.112000,838
18.116000,3072
18.120000,1621
18.124000,3328
18.128000,2152
18.132000,3840
18.136000,2168
18.140000,0
18.144000,1937
18.148000,256
18.152000,2468
18.156000,512
18.160000,2458
18.164000,256
18.168000,1159
18.172000,3840
18.176000,3699
18.180000,3584
18.184000,3155
18.188000,2816
18.192000,20
18.196000,2032
18.200000,2025
18.204000,1535
18.208000,2777
18.212000,1535
18.216000,1231
18.220000,1279
18.224000,457
18.228000,1279
18.232000,1738
18.236000,1279
18.240000,2767
18.244000,1535
18.248000,4054
18.252000,1535
18.256000,470
18.260000,1535
18.264000,2012
18.268000,1535
18.272000,3041
18.276000,1791
18.280000,230
18.284000,1791
18.288000,1771
18.292000,1791
18.296000,3056
18.300000,2047
18.304000,3571
18.308000,2047
18.312000,3064
18.316000,2063
18.320000,3344
18.324000,2560
18.328000,339
18.332000,256
18.336000,2807
18.340000,3600
18.344000,2247
18.348000,2337
18.352000,2874
18.356000,3362
18.360000,1104
18.364000,2594
18.368000,1006
18.372000,529
18.376000,1892
18.380000,2065
18.384000,2995
18.388000,3328
18.392000,2834
18.396000,2032
18.400000,2536
18.404000,1535
18.408000,4008
18.412000,4095
18.416000,3661
18.420000,2815
18.424000,3577
18.428000,1518
18.432000,707
18.436000,1262
18.440000,2779
18.444000,2030
18.448000,2814
18.452000,2302
18.456000,3842
18.460000,2303
18.464000,777
18.468000,2303
18.472000,1803
18.476000,2303
18.480000,1044
18.484000,2559
18.488000,2086
18.492000,3071
18.496000,2104
18.500000,3327
18.504000,1861
18.508000,3327
18.512000,1885
18.516000,3839
18.520000,2177
18.524000,511
18.528000,2720
18.532000,1023
18.536000,2757
18.540000,1535
18.544000,2275
18.548000,2047
18.552000,1794
18.556000,2048
18.560000,3357
18.564000,2560
18.568000,2348
18.572000,2816
18.576000,2361
18.580000,3072
18.584000,3654
18.588000,3072
18.592000,3654
18.596000,3072
18.600000,328
18.604000,3072
18.608000,331
18.612000,3072
18.616000,3656
18.620000,3072
18.624000,2369
18.628000,3072
18.632000,2369
18.636000,3072
18.640000,1086
18.644000,2816
18.648000,1852
18.652000,2816
18.656000,2374
18.660000,3328
18.664000,3421
18.668000,3584
18.672000,107
18.676000,3840
18.680000,2437
18.684000,256
18.688000,1938
18.692000,0
18.696000,2695
18.700000,0
18.704000,127
18.708000,3840
18.712000,1395
18.716000,3584
18.720000,2390
18.724000,2816
18.728000,2832
18.732000,2032
18.736000,2527
18.740000,1535
18.744000,3273
18.748000,1279
18.752000,1983
18.756000,1023
18.760000,1985
18.764000,1023
18.768000,1469
18.772000,1023
18.776000,1983
18.780000,1023
18.784000,3521
18.788000,1279
18.792000,2508
18.796000,1535
18.800000,4050
18.804000,1535
18.808000,473
18.812000,1535
18.816000,2011
18.820000,1535
18.824000,483
18.828000,1791
18.832000,3056
18.836000,2047
18.840000,3571
18.844000,2047
18.848000,2293
18.852000,2063
18.856000,1551
18.860000,2560
18.864000,2402
18.868000,768
18.872000,3094
18.876000,17
18.880000,484
18.884000,2593
18.888000,598
18.892000,3874
18.896000,906
18.900000,3874
18.904000,81
18.908000,2338
18.912000,1748
18.916000,3857
18.920000,2840
18.924000,769
18.928000,114
18.932000,3328
18.936000,579
18.940000,2304
18.944000,3801
18.948000,511
18.952000,2145
18.956000,3071
18.960000,1282
18.964000,1519
18.968000,3022
18.972000,1518
18.976000,4069
18.980000,2030
18.984000,774
18.988000,2303
18.992000,3087
18.996000,2559
19.000000,280
19.004000,2559
19.008000,1564
19.012000,2559
19.016000,291
19.020000,2815
19.024000,3632
19.028000,3071
19.032000,576
19.036000,3327
19.040000,3157
19.044000,3839
19.048000,2931
19.052000,255
19.056000,2192
19.060000,767
19.064000,3250
19.068000,1279
19.072000,2514
19.076000,1791
19.080000,4080
19.084000,2063
19.088000,3095
19.092000,2560
19.096000,3630
19.100000,2816
19.104000,1593
19.108000,2816
19.112000,3649
19.116000,3072
19.120000,3652
19.124000,3072
19.128000,1099
19.132000,3072
19.136000,1102
19.140000,3072
19.144000,844
19.148000,3072
19.152000,75
19.156000,3072
19.160000,1860
19.164000,2816
19.168000,830
19.172000,2816
19.176000,1083
19.180000,2816
19.184000,321
19.188000,3072
19.192000,1619
19.196000,3328
19.200000,870
19.204000,3584
19.208000,2163
19.212000,0
19.216000,3727
19.220000,256
19.224000,2454
19.228000,256
19.232000,3466
19.236000,0
19.240000,1408
19.244000,3840
19.248000,2674
19.252000,3584
19.256000,584
19.260000,2560
19.264000,3600
19.268000,2032
19.272000,486
19.276000,1535
19.280000,1746
19.284000,1279
19.288000,457
19.292000,1279
19.296000,1226
19.300000,1279
19.304000,1228
19.308000,1279
19.312000,2510
19.316000,1535
19.320000,2769
19.324000,1535
19.328000,470
19.332000,1535
19.336000,1756
19.340000,1535
19.344000,3811
19.348000,1791
19.352000,232
19.356000,1791
19.360000,2284
19.364000,2047
19.368000,3059
19.372000,2047
19.376000,245
19.380000,2047
19.384000,771
19.388000,2048
19.392000,1564
19.396000,2816
19.400000,2940
19.404000,1280
19.408000,1858
19.412000,529
19.416000,2826
19.420000,3106
19.424000,1384
19.428000,3874
19.432000,3184
19.436000,3106
19.440000,2568
19.444000,1042
19.448000,3692
19.452000,2065
19.456000,1945
19.460000,2816
19.464000,13
19.468000,2032
19.472000,2788
19.476000,1279
19.480000,661
19.484000,3839
19.488000,320
19.492000,2559
19.496000,1013
19.500000,1518
19.504000,1243
19.508000,1774
19.512000,3073
19.516000,2559
19.520000,2846
19.524000,2815
19.528000,294
19.532000,2815
19.536000,299
19.540000,2815
19.544000,2093
19.548000,3071
19.552000,565
19.556000,3071
19.560000,1090
19.564000,3327
19.568000,1877
19.572000,3583
19.576000,876
19.580000,4095
19.584000,139
19.588000,511
19.592000,168
19.596000,1023
19.600000,1228
19.604000,1535
19.608000,2283
19.612000,2063
19.616000,1293
19.620000,2304
19.624000,2599
19.628000,2816
19.632000,3134
19.636000,3072
19.640000,838
19.644000,3072
19.648000,2896
19.652000,3328
19.656000,2897
19.660000,3328
19.664000,2385
19.668000,3328
19.672000,2128
19.676000,3328
19.680000,1616
19.684000,3072
19.688000,3657
19.692000,3072
19.696000,2883
19.700000,3072
19.704000,831
19.708000,2816
19.712000,3646
19.716000,3072
19.720000,336
19.724000,3328
19.728000,1381
19.732000,3584
19.736000,1911
19.740000,3840
19.744000,2700
19.748000,256
19.752000,2711
19.756000,256
19.760000,2700
19.764000,0
19.768000,2682
19.772000,3840
19.776000,2667
19.780000,3584
19.784000,1100
19.788000,2560
19.792000,3591
19.796000,1776
19.800000,3537
19.804000,1279
19.808000,189
19.812000,1023
19.816000,2740
19.820000,1023
19.824000,4021
19.828000,1023
19.832000,2741
19.836000,1023
19.840000,2735
19.844000,1023
19.848000,1464
19.852000,1023
19.856000,449
19.860000,1279
19.864000,3791
19.868000,1535
19.872000,2514
19.876000,1535
19.880000,980
19.884000,1535
19.888000,3039
19.892000,1791
19.896000,2281
19.900000,2047
19.904000,2545
19.908000,2047
19.912000,2545
19.916000,2047
19.920000,2808
19.924000,2319
19.928000,1083
19.932000,3840
19.936000,1493
19.940000,2832
19.944000,421
19.948000,1809
19.952000,3633
19.956000,3362
19.960000,3696
19.964000,3618
19.968000,1863
19.972000,2338
19.976000,4075
19.980000,529
19.984000,1360
19.988000,1537
19.992000,3735
19.996000,3584
20.000000,3923
20.004000,2816
20.008000,3330
20.012000,1264
20.016000,2697
20.020000,3583
20.024000,2585
20.028000,1775
20.032000,1731
20.036000,1006
20.040000,1480
20.044000,1518
20.048000,4079
20.052000,2030
20.056000,1273
20.060000,2030
20.064000,2558
20.068000,2302
20.072000,2559
20.076000,2302
20.080000,770
20.084000,2303
20.088000,271
20.092000,2559
20.096000,1571
20.100000,2815
20.104000,1333
20.108000,3071
20.112000,1354
20.116000,3583
20.120000,1134
20.124000,4095
20.128000,2192
20.132000,767
20.136000,2482
20.140000,1279
20.144000,3282
20.148000,1791
20.152000,3571
20.156000,2063
20.160000,1298
20.164000,2304
20.168000,2343
20.172000,2816
20.176000,2875
20.180000,3072
20.184000,72
20.188000,3072
20.192000,328
20.196000,3072
20.200000,841
20.204000,3072
20.208000,329
20.212000,3072
20.216000,3145
20.220000,3072
20.224000,3140
20.228000,3072
20.232000,1857
20.236000,2816
20.240000,1598
20.244000,2816
20.248000,3647
20.252000,3072
20.256000,2891
20.260000,3328
20.264000,2649
20.268000,3584
20.272000,1893
20.276000,3584
20.280000,380
20.284000,0
20.288000,1167
20.292000,0
20.296000,2697
20.300000,0
20.304000,125
20.308000,3840
20.312000,885
20.316000,3584
20.320000,342
20.324000,2816
20.328000,2076
20.332000,2048
20.336000,1257
20.340000,1535
20.344000,2518
20.348000,1535
20.352000,460
20.356000,1279
20.360000,455
20.364000,1279
20.368000,457
20.372000,1279
20.376000,1740
20.380000,1279
20.384000,1999
20.388000,1279
20.392000,2767
20.396000,1535
20.400000,470
20.404000,1535
20.408000,2524
20.412000,1791
20.416000,3812
20.420000,1791
20.424000,998
20.428000,1791
20.432000,1772
20.436000,1791
20.440000,2542
20.444000,2047
20.448000,2291
20.452000,2063
20.456000,271
20.460000,2560
20.464000,1629
20.468000,512
20.472000,3604
20.476000,17
20.480000,1512
20.484000,2593
20.488000,3929
20.492000,3874
20.496000,1402
20.500000,3362
20.504000,39
20.508000,1554
20.512000,2966
20.516000,2833
20.520000,451
20.524000,3328
20.528000,2074
20.532000,2048
20.536000,1769
20.540000,1279
20.544000,3234
20.548000,4095
20.552000,336
20.556000,2815
20.560000,1794
20.564000,1519
20.568000,722
20.572000,1518
20.576000,2541
20.580000,2302
20.584000,15
20.588000,2559
20.592000,2075
20.596000,2815
20.600000,2851
20.604000,2815
20.608000,35
20.612000,2815
20.616000,3376
20.620000,3071
20.624000,3387
20.628000,3327
20.632000,3405
20.636000,3583
20.640000,1631
20.644000,3839
20.648000,1406
20.652000,255
20.656000,1435
20.660000,767
20.664000,2495
20.668000,1535
20.672000,1759
20.676000,1791
20.680000,2562
20.684000,2304
20.688000,1569
20.692000,2560
20.696000,1590
20.700000,2816
20.704000,68
20.708000,3072
20.712000,3406
20.716000,3328
20.720000,88
20.724000,3328
20.728000,859
20.732000,3328
20.736000,3673
20.740000,3328
20.744000,86
20.748000,3328
20.752000,3414
20.756000,3328
20.760000,1617
20.764000,3072
20.768000,844
20.772000,3072
20.776000,78
20.780000,3328
20.784000,1381
20.788000,3584
20.792000,1911
20.796000,3840
20.800000,3722
20.804000,256
20.808000,1187
20.812000,512
20.816000,4014
20.820000,512
20.824000,3740
20.828000,256
20.832000,3981
20.836000,0
20.840000,2687
20.844000,3840
20.848000,1627
20.852000,2816
20.856000,2588
20.860000,2048
20.864000,2027
20.868000,1535
20.872000,2518
20.876000,1535
20.880000,1742
20.884000,1279
20.888000,1230
20.892000,1279
20.896000,2510
20.900000,1535
20.904000,2513
20.908000,1535
20.912000,468
20.916000,1535
20.920000,1243
20.924000,1535
20.928000,3297
20.932000,1791
20.936000,232
20.940000,1791
20.944000,1259
20.948000,1791
20.952000,2288
20.956000,2047
20.960000,2545
20.964000,2047
20.968000,3059
20.972000,2047
20.976000,3574
20.980000,2063
20.984000,3864
20.988000,2816
20.992000,883
20.996000,1024
21.000000,1589
21.004000,273
21.008000,1518
21.012000,2337
21.016000,3897
21.020000,3106
21.024000,2868
21.028000,2082
21.032000,3269
21.036000,17
21.040000,1333
21.044000,1281
21.048000,1663
21.052000,2560
21.056000,3331
21.060000,2032
21.064000,2025
21.068000,1279
21.072000,2976
21.076000,4095
21.080000,2125
21.084000,2815
21.088000,749
21.092000,1262
21.096000,1728
21.100000,1262
21.104000,3556
21.108000,2030
21.112000,258
21.116000,2303
21.120000,2318
21.124000,2559
21.128000,20
21.132000,2559
21.136000,793
21.140000,2559
21.144000,33
21.148000,2815
21.152000,3376
21.156000,3071
21.160000,573
21.164000,3327
21.168000,2391
21.172000,3839
21.176000,1646
21.180000,4095
21.184000,1678
21.188000,511
21.192000,3248
21.196000,1279
21.200000,983
21.204000,1791
21.208000,512
21.212000,2048
21.216000,18
21.220000,2304
21.224000,1569
21.228000,2560
21.232000,1590
21.236000,2816
21.240000,65
21.244000,3072
21.248000,2126
21.252000,3328
21.256000,3659
21.260000,3072
21.264000,3140
21.268000,3072
21.272000,68
21.276000,3072
21.280000,73
21.284000,3072
21.288000,1860
21.292000,2816
21.296000,2367
21.300000,3072
21.304000,3140
21.308000,3072
21.312000,1606
21.316000,3072
21.320000,1366
21.324000,3328
21.328000,867
21.332000,3584
21.336000,2679
21.340000,0
21.344000,401
21.348000,256
21.352000,1174
21.356000,0
21.360000,1925
21.364000,3840
21.368000,2167
21.372000,3840
21.376000,2920
21.380000,3328
21.384000,2612
21.388000,2304
21.392000,3829
21.396000,1791
21.400000,2012
21.404000,1279
21.408000,1474
21.412000,1023
21.416000,4033
21.420000,1279
21.424000,1738
21.428000,1279
21.432000,1226
21.436000,1279
21.440000,714
21.444000,1279
21.448000,2766
21.452000,1535
21.456000,470
21.460000,1535
21.464000,3036
21.468000,1791
21.472000,2531
21.476000,1791
21.480000,3299
21.484000,1791
21.488000,998
21.492000,1791
21.496000,2284
21.500000,2047
21.504000,3825
21.508000,2047
21.512000,2312
21.516000,2560
21.520000,1356
21.524000,0
21.528000,2791
21.532000,3344
21.536000,184
21.540000,2081
21.544000,836
21.548000,3618
21.552000,900
21.556000,3874
21.560000,601
21.564000,2594
21.568000,748
21.572000,273
21.576000,822
21.580000,1025
21.584000,1143
21.588000,3072
21.592000,55
21.596000,2304
21.600000,2273
21.604000,767
21.608000,612
21.612000,3071
21.616000,2569
21.620000,1775
21.624000,3782
21.628000,1262
21.632000,1239
21.636000,1774
21.640000,3322
21.644000,2302
21.648000,1803
21.652000,2303
21.656000,3087
21.660000,2559
21.664000,3092
21.668000,2559
21.672000,1558
21.676000,2559
21.680000,1574
21.684000,2815
21.688000,819
21.692000,3071
21.696000,2115
21.700000,3583
21.704000,605
21.708000,3839
21.712000,891
21.716000,255
21.720000,925
21.724000,767
21.728000,2495
21.732000,1535
21.736000,1247
21.740000,1791
21.744000,768
21.748000,2048
21.752000,2584
21.756000,2560
21.760000,2602
21.764000,2816
21.768000,1081
21.772000,2816
21.776000,67
21.780000,3072
21.784000,329
21.788000,3072
21.792000,72
21.796000,3072
21.800000,3142
21.804000,3072
21.808000,2371
21.812000,3072
21.816000,2883
21.820000,3072
21.824000,2369
21.828000,3072
21.832000,323
21.836000,3072
21.840000,336
21.844000,3328
21.848000,1381
21.852000,3584
21.856000,626
21.860000,3840
21.864000,2693
21.868000,256
21.872000,1946
21.876000,256
21.880000,414
21.884000,256
21.888000,657
21.892000,0
21.896000,130
21.900000,3840
21.904000,1126
21.908000,3072
21.912000,2095
21.916000,2304
21.920000,3317
21.924000,1791
21.928000,3292
21.932000,1535
21.936000,4044
21.940000,1279
21.944000,4037
21.948000,1279
21.952000,4041
21.956000,1279
21.960000,455
21.964000,1279
21.968000,1228
21.972000,1279
21.976000,2767
21.980000,1535
21.984000,983
21.988000,1535
21.992000,3038
21.996000,1791
22.000000,3812
22.004000,1791
22.008000,486
22.012000,1791
22.016000,2286
22.020000,2047
22.024000,3569
22.028000,2047
22.032000,502
22.036000,2047
22.040000,5
22.044000,2304
22.048000,3905
22.052000,0
22.056000,487
22.060000,3344
22.064000,197
22.068000,2337
22.072000,583
22.076000,3618
22.080000,122
22.084000,3618
22.088000,1337
22.092000,1810
22.096000,1975
22.100000,3345
22.104000,501
22.108000,0
22.112000,1334
22.116000,2048
22.120000,2553
22.124000,1791
22.128000,1468
22.132000,255
22.136000,2146
22.140000,3327
22.144000,3356
22.148000,2031
22.152000,735
22.156000,1518
22.160000,2538
22.164000,2302
22.168000,1556
22.172000,2559
22.176000,3363
22.180000,2815
22.184000,3366
22.188000,2815
22.192000,293
22.196000,2815
22.200000,565
22.204000,3071
22.208000,2877
22.212000,3327
22.216000,2122
22.220000,3583
22.224000,3673
22.228000,3839
22.232000,3702
22.236000,255
22.240000,2965
22.244000,767
22.248000,2736
22.252000,1279
22.256000,3023
22.260000,1791
22.264000,4083
22.268000,2063
22.272000,2324
22.276000,2560
22.280000,3886
22.284000,2816
22.288000,3638
22.292000,2816
22.296000,3132
22.300000,3072
22.304000,328
22.308000,3072
22.312000,843
22.316000,3072
22.320000,73
22.324000,3072
22.328000,3656
22.332000,3072
22.336000,1857
22.340000,2816
22.344000,2881
22.348000,3072
22.352000,2883
22.356000,3072
22.360000,838
22.364000,3072
22.368000,337
22.372000,3328
22.376000,1893
22.380000,3584
22.384000,2167
22.388000,0
22.392000,397
22.396000,256
22.400000,412
22.404000,256
22.408000,1423
22.412000,0
22.416000,3980
22.420000,0
22.424000,2175
22.428000,3840
22.432000,3672
22.436000,2816
22.440000,3604
22.444000,2032
22.448000,998
22.452000,1535
22.456000,465
22.460000,1279
22.464000,453
22.468000,1279
22.472000,4041
22.476000,1279
22.480000,4037
22.484000,1279
22.488000,713
22.492000,1279
22.496000,2510
22.500000,1535
22.504000,3798
22.508000,1535
22.512000,3286
22.516000,1535
22.520000,3035
22.524000,1791
22.528000,2283
22.532000,2047
22.536000,494
22.540000,1791
22.544000,2540
22.548000,2047
22.552000,3573
22.556000,2047
22.560000,4088
22.564000,2063
22.568000,280
22.572000,2816
22.576000,883
22.580000,1024
22.584000,2112
22.588000,785
22.592000,3835
22.596000,2849
22.600000,3933
22.604000,3874
22.608000,1399
22.612000,3362
22.616000,2866
22.620000,2082
22.624000,2500
22.628000,3857
22.632000,3086
22.636000,769
22.640000,3452
22.644000,3584
22.648000,3400
22.652000,2304
22.656000,207
22.660000,511
22.664000,103
22.668000,3071
22.672000,516
22.676000,1519
22.680000,966
22.684000,1262
22.688000,218
22.692000,1774
22.696000,2037
22.700000,2030
22.704000,1794
22.708000,2031
22.712000,2047
22.716000,2030
22.720000,2562
22.724000,2303
22.728000,3596
22.732000,2559
22.736000,32
22.740000,2815
22.744000,1331
22.748000,3071
22.752000,2119
22.756000,3583
22.760000,1119
22.764000,3839
22.768000,123
22.772000,255
22.776000,150
22.780000,767
22.784000,1212
22.788000,1279
22.792000,987
22.796000,1791
22.800000,1017
22.804000,2063
22.808000,1813
22.812000,2304
22.816000,1833
22.820000,2560
22.824000,3121
22.828000,2816
22.832000,1079
22.836000,2816
22.840000,3135
22.844000,3072
22.848000,3140
22.852000,3072
22.856000,1087
22.860000,2816
22.864000,315
22.868000,2816
22.872000,3124
22.876000,2816
22.880000,308
22.884000,2816
22.888000,2364
22.892000,3072
22.896000,2891
22.900000,3328
22.904000,857
22.908000,3328
22.912000,2661
22.916000,3840
22.920000,1152
22.924000,0
22.928000,2706
22.932000,256
22.936000,2700
22.940000,0
22.944000,2938
22.948000,3840
22.952000,1645
22.956000,3328
22.960000,328
22.964000,2560
22.968000,2059
22.972000,2032
22.976000,4063
22.980000,1535
22.984000,3535
22.988000,1279
22.992000,1469
22.996000,1023
23.000000,1213
23.004000,1023
23.008000,4024
23.012000,1023
23.016000,1464
23.020000,1023
23.024000,3521
23.028000,1279
23.032000,2508
23.036000,1535
23.040000,3793
23.044000,1535
23.048000,2524
23.052000,1791
23.056000,998
23.060000,1791
23.064000,2542
23.068000,2047
23.072000,2544
23.076000,2047
23.080000,245
23.084000,2047
23.088000,0
23.092000,2048
23.096000,3612
23.100000,3072
23.104000,3471
23.108000,1792
23.112000,2410
23.116000,1297
23.120000,3100
23.124000,3106
23.128000,3424
23.132000,3618
23.136000,1868
23.140000,2338
23.144000,3310
23.148000,785
23.152000,1894
23.156000,1793
23.160000,1940
23.164000,2816
23.168000,3604
23.172000,2032
23.176000,2527
23.180000,1279
23.184000,925
23.188000,4095
23.192000,2908
23.196000,3071
23.200000,9
23.204000,1775
23.208000,733
23.212000,1774
23.216000,3585
23.220000,2559
23.224000,2085
23.228000,3071
23.232000,3381
23.236000,3071
23.240000,3635
23.244000,3071
23.248000,3637
23.252000,3071
23.256000,3387
23.260000,3327
23.264000,592
23.268000,3583
23.272000,3167
23.276000,3839
23.280000,1646
23.284000,4095
23.288000,2704
23.292000,767
23.296000,1456
23.300000,1023
23.304000,4044
23.308000,1535
23.312000,488
23.316000,2047
23.320000,1293
23.324000,2304
23.328000,3628
23.332000,2816
23.336000,2878
23.340000,3072
23.344000,2123
23.348000,3328
23.352000,2899
23.356000,3328
23.360000,3669
23.364000,3328
23.368000,88
23.372000,3328
23.376000,1627
23.380000,3328
23.384000,862
23.388000,3328
23.392000,2902
23.396000,3328
23.400000,3669
23.404000,3328
23.408000,2136
23.412000,3584
23.416000,2664
23.420000,3840
23.424000,1912
23.428000,3840
23.432000,1413
23.436000,0
23.440000,3993
23.444000,512
23.448000,1198
23.452000,512
23.456000,1187
23.460000,256
23.464000,3222
23.468000,256
23.472000,2701
23.476000,0
23.480000,1645
23.484000,3072
23.488000,553
23.492000,2048
23.496000,3312
23.500000,1791
23.504000,3803
23.508000,1535
23.512000,2514
23.516000,1535
23.520000,1231
23.524000,1279
23.528000,1998
23.532000,1279
23.536000,2001
23.540000,1279
23.544000,1999
23.548000,1279
23.552000,3794
23.556000,1535
23.560000,1753
23.564000,1535
23.568000,2017
23.572000,1535
23.576000,2015
23.580000,1535
23.584000,2015
23.588000,1535
23.592000,225
23.596000,1791
23.600000,3825
23.604000,2047
23.608000,3574
23.612000,2063
23.616000,792
23.620000,2816
23.624000,2933
23.628000,1280
23.632000,2877
23.636000,529
23.640000,501
23.644000,2593
23.648000,3143
23.652000,3362
23.656000,2622
23.660000,2338
23.664000,3035
23.668000,529
23.672000,2401
23.676000,2321
23.680000,2998
23.684000,3584
23.688000,1326
23.692000,2048
23.696000,3304
23.700000,1023
23.704000,3456
23.708000,3583
23.712000,822
23.716000,2559
23.720000,2042
23.724000,1518
23.728000,4059
23.732000,1774
23.736000,505
23.740000,2302
23.744000,1560
23.748000,2559
23.752000,35
23.756000,2815
23.760000,297
23.764000,2815
23.768000,811
23.772000,2815
23.776000,3632
23.780000,3071
23.784000,3901
23.788000,3327
23.792000,1871
23.796000,3583
23.800000,879
23.804000,4095
23.808000,2436
23.812000,511
23.816000,1950
23.820000,767
23.824000,2751
23.828000,1535
23.832000,3814
23.836000,2047
23.840000,2565
23.844000,2304
23.848000,3098
23.852000,2560
23.856000,3884
23.860000,2816
23.864000,3135
23.868000,3072
23.872000,3140
23.876000,3072
23.880000,836
23.884000,3072
23.888000,2382
23.892000,3328
23.896000,3411
23.900000,3328
23.904000,1105
23.908000,3072
23.912000,75
23.916000,3072
23.920000,1859
23.924000,2816
23.928000,3135
23.932000,3072
23.936000,3404
23.940000,3328
23.944000,608
23.948000,3584
23.952000,2927
23.956000,3840
23.960000,2432
23.964000,256
23.968000,1180
23.972000,256
23.976000,3473
23.980000,0
23.984000,2938
23.988000,3840
23.992000,2669
23.996000,3584
24.000000,1612
24.004000,2560
24.008000,3594
24.012000,1776
24.016000,1231
24.020000,1023
24.024000,1970
24.028000,767
24.032000,170
24.036000,767
24.040000,2981
24.044000,767
24.048000,2210
24.052000,767
24.056000,1694
24.060000,511
24.064000,2976
24.068000,767
24.072000,3493
24.076000,767
24.080000,2730
24.084000,1023
24.088000,1207
24.092000,1023
24.096000,2751
24.100000,1279
24.104000,452
24.108000,1279
24.112000,1996
24.116000,1279
24.120000,3282
24.124000,1535
24.128000,3031
24.132000,1791
24.136000,1521
24.140000,2063
24.144000,1087
24.148000,0
24.152000,495
24.156000,3344
24.160000,2234
24.164000,2081
24.168000,3113
24.172000,3106
24.176000,588
24.180000,2850
24.184000,3855
24.188000,1298
24.192000,2205
24.196000,3345
24.200000,759
24.204000,256
24.208000,342
24.212000,2816
24.216000,549
24.220000,2048
24.224000,1748
24.228000,511
24.232000,2670
24.236000,3327
24.240000,2065
24.244000,1775
24.248000,3781
24.252000,1262
24.256000,3539
24.260000,1774
24.264000,754
24.268000,2030
24.272000,2556
24.276000,2302
24.280000,3844
24.284000,2303
24.288000,777
24.292000,2303
24.296000,2316
24.300000,2559
24.304000,2840
24.308000,2815
24.312000,816
24.316000,3071
24.320000,1347
24.324000,3327
24.328000,2397
24.332000,4095
24.336000,1411
24.340000,255
24.344000,923
24.348000,767
24.352000,3777
24.356000,1535
24.360000,3817
24.364000,2047
24.368000,773
24.372000,2048
24.376000,3864
24.380000,2560
24.384000,1844
24.388000,2816
24.392000,840
24.396000,3072
24.400000,2128
24.404000,3328
24.408000,1100
24.412000,3072
24.416000,2126
24.420000,3328
24.424000,2896
24.428000,3328
24.432000,2899
24.436000,3328
24.440000,1616
24.444000,3072
24.448000,1614
24.452000,3072
24.456000,3662
24.460000,3328
24.464000,94
24.468000,3584
24.472000,2925
24.476000,3840
24.480000,3450
24.484000,0
24.488000,2450
24.492000,512
24.496000,4007
24.500000,512
24.504000,1185
24.508000,256
24.512000,3225
24.516000,256
24.520000,1420
24.524000,3840
24.528000,3686
24.532000,3072
24.536000,807
24.540000,2048
24.544000,501
24.548000,1791
24.552000,995
24.556000,1535
24.560000,2774
24.564000,1535
24.568000,2514
24.572000,1535
24.576000,3796
24.580000,1535
24.584000,2516
24.588000,1535
24.592000,2511
24.596000,1535
24.600000,1751
24.604000,1535
24.608000,227
24.612000,1791
24.616000,1001
24.620000,1791
24.624000,3052
24.628000,2047
24.632000,2296
24.636000,2063
24.640000,2299
24.644000,2063
24.648000,2560
24.652000,2048
24.656000,0
24.660000,2048
24.664000,1057
24.668000,3072
24.672000,652
24.676000,1536
24.680000,1116
24.684000,1041
24.688000,3375
24.692000,3618
24.696000,391
24.700000,290
24.704000,3719
24.708000,3362
24.712000,797
24.716000,1298
24.720000,2950
24.724000,2577
24.728000,3005
24.732000,3584
24.736000,1074
24.740000,2304
24.744000,773
24.748000,1520
24.752000,938
24.756000,4095
24.760000,2647
24.764000,3071
24.768000,3847
24.772000,1775
24.776000,4059
24.780000,1774
24.784000,1276
24.788000,2302
24.792000,1046
24.796000,2559
24.800000,3363
24.804000,2815
24.808000,2851
24.812000,2815
24.816000,806
24.820000,2815
24.824000,51
24.828000,3071
24.832000,3903
24.836000,3327
24.840000,591
24.844000,3583
24.848000,1894
24.852000,3839
24.856000,379
24.860000,255
24.864000,1947
24.868000,767
24.872000,2495
24.876000,1535
24.880000,2271
24.884000,2047
24.888000,1792
24.892000,2048
24.896000,2593
24.900000,2816
24.904000,63
24.908000,3072
24.912000,1612
24.916000,3072
24.920000,1614
24.924000,3072
24.928000,3669
24.932000,3328
24.936000,2392
24.940000,3328
24.944000,2382
24.948000,3328
24.952000,85
24.956000,3328
24.960000,3416
24.964000,3328
24.968000,1617
24.972000,3072
24.976000,2894
24.980000,3328
24.984000,93
24.988000,3584
24.992000,1907
24.996000,3840
25.000000,2695
25.004000,256
25.008000,1695
25.012000,512
25.016000,3252
25.020000,768
25.024000,3244
25.028000,512
25.032000,1946
25.036000,0
25.040000,3458
25.044000,3840
25.048000,355
25.052000,3072
25.056000,2090
25.060000,2304
25.064000,504
25.068000,1791
25.072000,3806
25.076000,1535
25.080000,1231
25.084000,1279
25.088000,3273
25.092000,1279
25.096000,3524
25.100000,1279
25.104000,4039
25.108000,1279
25.112000,1996
25.116000,1279
25.120000,468
25.124000,1535
25.128000,3039
25.132000,1791
25.136000,3300
25.140000,1791
25.144000,228
25.148000,1791
25.152000,2284
25.156000,2047
25.160000,3827
25.164000,2047
25.168000,249
25.172000,2047
25.176000,512
25.180000,2048
25.184000,1053
25.188000,2816
25.192000,2418
25.196000,1024
25.200000,3369
25.204000,273
25.208000,4076
25.212000,2593
25.216000,327
25.220000,3362
25.224000,336
25.228000,2594
25.232000,755
25.236000,785
25.240000,1399
25.244000,2577
25.248000,1235
25.252000,3840
25.256000,3135
25.260000,2560
25.264000,1037
25.268000,1776
25.272000,2495
25.276000,511
25.280000,1393
25.284000,3327
25.288000,1057
25.292000,2031
25.296000,2540
25.300000,2030
25.304000,3074
25.308000,2559
25.312000,2078
25.316000,2815
25.320000,3361
25.324000,2815
25.328000,48
25.332000,3071
25.336000,2109
25.340000,3327
25.344000,1093
25.348000,3327
25.352000,3924
25.356000,3583
25.360000,3933
25.364000,3839
25.368000,2422
25.372000,255
25.376000,910
25.380000,511
25.384000,4010
25.388000,1023
25.392000,3781
25.396000,1535
25.400000,3558
25.404000,2047
25.408000,3077
25.412000,2304
25.416000,545
25.420000,2560
25.424000,817
25.428000,2816
25.432000,2878
25.436000,3072
25.440000,70
25.444000,3072
25.448000,843
25.452000,3072
25.456000,72
25.460000,3072
25.464000,72
25.468000,3072
25.472000,3140
25.476000,3072
25.480000,2371
25.484000,3072
25.488000,1857
25.492000,2816
25.496000,65
25.500000,3072
25.504000,336
25.508000,3328
25.512000,867
25.516000,3584
25.520000,1395
25.524000,3840
25.528000,3725
25.532000,256
25.536000,2455
25.540000,256
25.544000,2698
25.548000,0
25.552000,2940
25.556000,3840
25.560000,2157
25.564000,3584
25.568000,3915
25.572000,2560
25.576000,3077
25.580000,1776
25.584000,722
25.588000,1279
25.592000,1476
25.596000,1023
25.600000,2231
25.604000,1023
25.608000,939
25.612000,767
25.616000,939
25.620000,767
25.624000,2221
25.628000,1023
25.632000,3250
25.636000,1023
25.640000,4021
25.644000,1023
25.648000,2492
25.652000,1279
25.656000,450
25.660000,1279
25.664000,1996
25.668000,1279
25.672000,2513
25.676000,1535
25.680000,1238
25.684000,1535
25.688000,2527
25.692000,1791
25.696000,996
25.700000,1791
25.704000,3318
25.708000,2319
25.712000,587
25.716000,256
25.720000,767
25.724000,3600
25.728000,2759
25.732000,2081
25.736000,1061
25.740000,2850
25.744000,1091
25.748000,2594
25.752000,1026
25.756000,1042
25.760000,3721
25.764000,2833
25.768000,4056
25.772000,3840
25.776000,1078
25.780000,2304
25.784000,2317
25.788000,2032
25.792000,713
25.796000,511
25.800000,2156
25.804000,3327
25.808000,3855
25.812000,1775
25.816000,718
25.820000,1262
25.824000,3283
25.828000,1774
25.832000,1265
25.836000,2030
25.840000,2814
25.844000,2302
25.848000,3846
25.852000,2303
25.856000,3074
25.860000,2303
25.864000,1031
25.868000,2303
25.872000,1043
25.876000,2559
25.880000,1315
25.884000,2815
25.888000,2102
25.892000,3327
25.896000,1356
25.900000,3583
25.904000,1134
25.908000,4095
25.912000,1421
25.916000,511
25.920000,683
25.924000,1023
25.928000,458
25.932000,1535
25.936000,2534
25.940000,2047
25.944000,514
25.948000,2048
25.952000,3346
25.956000,2304
25.960000,2332
25.964000,2560
25.968000,1063
25.972000,2560
25.976000,2607
25.980000,2816
25.984000,1079
25.988000,2816
25.992000,1598
25.996000,2816
26.000000,316
26.004000,2816
26.008000,3892
26.012000,2816
26.016000,1593
26.020000,2816
26.024000,2886
26.028000,3328
26.032000,94
26.036000,3584
26.040000,2923
26.044000,3840
26.048000,1407
26.052000,0
26.056000,3226
26.060000,512
26.064000,4009
26.068000,512
26.072000,3742
26.076000,256
26.080000,1169
26.084000,0
26.088000,896
26.092000,3584
26.096000,2385
26.100000,2816
26.104000,2063
26.108000,2032
26.112000,3807
26.116000,1535
26.120000,3534
26.124000,1279
26.128000,2498
26.132000,1279
26.136000,701
26.140000,1023
26.144000,1210
26.148000,1023
26.152000,1469
26.156000,1023
26.160000,2749
26.164000,1279
26.168000,455
26.172000,1279
26.176000,2508
26.180000,1535
26.184000,470
26.188000,1535
26.192000,1755
26.196000,1535
26.200000,3041
26.204000,1791
26.208000,3297
26.212000,1791
26.216000,998
26.220000,1791
26.224000,3056
26.228000,2063
26.232000,2335
26.236000,3328
26.240000,3742
26.244000,2064
26.248000,3958
26.252000,1297
26.256000,2840
26.260000,3106
26.264000,3680
26.268000,3618
26.272000,3150
26.276000,2594
26.280000,4078
26.284000,529
26.288000,3911
26.292000,1281
26.296000,3179
26.300000,2560
26.304000,2311
26.308000,2032
26.312000,2007
26.316000,767
26.320000,640
26.324000,3583
26.328000,3130
26.332000,2559
26.336000,3565
26.340000,1518
26.344000,216
26.348000,1774
26.352000,508
26.356000,2302
26.360000,276
26.364000,2559
26.368000,1566
26.372000,2559
26.376000,1054
26.380000,2559
26.384000,3616
26.388000,2815
26.392000,3629
26.396000,3071
26.400000,3904
26.404000,3327
26.408000,1104
26.412000,3583
26.416000,2919
26.420000,4095
26.424000,2432
26.428000,511
26.432000,3234
26.436000,1023
26.440000,3780
26.444000,1535
26.448000,3558
26.452000,2047
26.456000,1795
26.460000,2048
26.464000,284
26.468000,2560
26.472000,3889
26.476000,2816
26.480000,2878
26.484000,3072
26.488000,3140
26.492000,3072
26.496000,70
26.500000,3072
26.504000,3656
26.508000,3072
26.512000,2884
26.516000,3072
26.520000,1601
26.524000,2816
26.528000,315
26.532000,2816
26.536000,3127
26.540000,2816
26.544000,3892
26.548000,2816
26.552000,60
26.556000,3072
26.560000,1363
26.564000,3328
26.568000,1381
26.572000,3584
26.576000,3191
26.580000,0
26.584000,652
26.588000,0
26.592000,1412
26.596000,3840
26.600000,1911
26.604000,3584
26.608000,870
26.612000,3328
26.616000,584
26.620000,2560
26.624000,3591
26.628000,1776
26.632000,466
26.636000,1279
26.640000,1985
26.644000,1023
26.648000,1212
26.652000,1023
26.656000,1468
26.660000,1023
26.664000,1468
26.668000,1023
26.672000,1468
26.676000,1023
26.680000,708
26.684000,1279
26.688000,2766
26.692000,1535
26.696000,1239
26.700000,1535
26.704000,2527
26.708000,1791
26.712000,486
26.716000,1791
26.720000,1259
26.724000,1791
26.728000,3571
26.732000,2047
26.736000,2297
26.740000,2063
26.744000,1797
26.748000,2048
26.752000,3108
26.756000,3072
26.760000,2695
26.764000,1536
26.768000,2125
26.772000,785
26.776000,1275
26.780000,2593
26.784000,843
26.788000,3362
26.792000,1867
26.796000,2338
26.800000,4072
26.804000,529
26.808000,341
26.812000,1793
26.816000,393
26.820000,2816
26.824000,3348
26.828000,2048
26.832000,3313
26.836000,1535
26.840000,1699
26.844000,4095
26.848000,863
26.852000,3071
26.856000,3347
26.860000,2031
26.864000,1263
26.868000,2030
26.872000,2062
26.876000,2815
26.880000,2605
26.884000,3071
26.888000,2866
26.892000,3071
26.896000,566
26.900000,3071
26.904000,1853
26.908000,3071
26.912000,579
26.916000,3327
26.920000,3407
26.924000,3583
26.928000,351
26.932000,3839
26.936000,1654
26.940000,4095
26.944000,1421
26.948000,511
26.952000,171
26.956000,1023
26.960000,3781
26.964000,1535
26.968000,2534
26.972000,2047
26.976000,3077
26.980000,2304
26.984000,1057
26.988000,2560
26.992000,820
26.996000,2816
27.000000,67
27.004000,3072
27.008000,1611
27.012000,3072
27.016000,1102
27.020000,3072
27.024000,2382
27.028000,3328
27.032000,3411
27.036000,3328
27.040000,2128
27.044000,3328
27.048000,844
27.052000,3072
27.056000,840
27.060000,3072
27.064000,1361
27.068000,3328
27.072000,1894
27.076000,3584
27.080000,631
27.084000,3840
27.088000,1152
27.092000,0
27.096000,2457
27.100000,512
27.104000,1187
27.108000,256
27.112000,2454
27.116000,256
27.120000,3213
27.124000,0
27.128000,3448
27.132000,3584
27.136000,331
27.140000,2560
27.144000,2061
27.148000,2032
27.152000,3809
27.156000,1535
27.160000,1231
27.164000,1279
27.168000,1230
27.172000,1279
27.176000,1226
27.180000,1279
27.184000,1740
27.188000,1279
27.192000,463
27.196000,1535
27.200000,2526
27.204000,1791
27.208000,3811
27.212000,1791
27.216000,2281
27.220000,2047
27.224000,2293
27.228000,2063
27.232000,3328
27.236000,2048
27.240000,1800
27.244000,2048
27.248000,3346
27.252000,2304
27.256000,2328
27.260000,2560
27.264000,1580
27.268000,2816
27.272000,600
27.276000,0
27.280000,2272
27.284000,3344
27.288000,952
27.292000,2081
27.296000,2878
27.300000,3618
27.304000,2171
27.308000,34
27.312000,3949
27.316000,3106
27.320000,282
27.324000,1298
27.328000,2438
27.332000,2577
27.336000,2502
27.340000,256
27.344000,1415
27.348000,3840
27.352000,88
27.356000,2304
27.360000,2262
27.364000,767
27.368000,2931
27.372000,3327
27.376000,1046
27.380000,2031
27.384000,508
27.388000,2302
27.392000,3352
27.396000,2815
27.400000,2861
27.404000,3071
27.408000,3637
27.412000,3071
27.416000,1851
27.420000,3071
27.424000,2879
27.428000,3327
27.432000,3144
27.436000,3583
27.440000,348
27.444000,3839
27.448000,1652
27.452000,4095
27.456000,137
27.460000,511
27.464000,167
27.468000,1023
27.472000,455
27.476000,1535
27.480000,3564
27.484000,2063
27.488000,3092
27.492000,2560
27.496000,2354
27.500000,3072
27.504000,334
27.508000,3328
27.512000,99
27.516000,3584
27.520000,2927
27.524000,3840
27.528000,1914
27.532000,3840
27.536000,2178
27.540000,0
27.544000,2690
27.548000,0
27.552000,2692
27.556000,0
27.560000,2176
27.564000,0
27.568000,125
27.572000,3840
27.576000,117
27.580000,3840
27.584000,2684
27.588000,0
27.592000,3722
27.596000,256
27.600000,2974
27.604000,512
27.608000,2983
27.612000,768
27.616000,2241
27.620000,1280
27.624000,727
27.628000,1280
27.632000,978
27.636000,1024
27.640000,1473
27.644000,768
27.648000,1206
27.652000,512
27.656000,663
27.660000,3840
27.664000,1881
27.668000,2816
27.672000,1322
27.676000,2304
27.680000,3095
27.684000,2304
27.688000,783
27.692000,2048
27.696000,523
27.700000,2048
27.704000,3335
27.708000,2048
27.712000,775
27.716000,2048
27.720000,781
27.724000,2048
27.728000,2575
27.732000,2304
27.736000,3861
27.740000,2304
27.744000,1818
27.748000,2304
27.752000,1825
27.756000,2304
27.760000,3362
27.764000,2560
27.768000,1066
27.772000,2560
27.776000,2606
27.780000,2816
27.784000,3639
27.788000,3072
27.792000,1373
27.796000,0
27.800000,2011
27.804000,2832
27.808000,2727
27.812000,2337
27.816000,2896
27.820000,3874
27.824000,1170
27.828000,290
27.832000,898
27.836000,3106
27.840000,2570
27.844000,1042
27.848000,2657
27.852000,1793
27.856000,2953
27.860000,3072
27.864000,1585
27.868000,2560
27.872000,2844
27.876000,2032
27.880000,709
27.884000,511
27.888000,628
27.892000,3327
27.896000,1057
27.900000,2303
27.904000,1039
27.908000,2559
27.912000,2867
27.916000,3327
27.920000,1356
27.924000,3327
27.928000,3410
27.932000,3583
27.936000,3415
27.940000,3583
27.944000,599
27.948000,3583
27.952000,2655
27.956000,3839
27.960000,3690
27.964000,4095
27.968000,2180
27.972000,511
27.976000,667
27.980000,767
27.984000,3512
27.988000,1279
27.992000,3284
27.996000,1791
28.000000,757
28.004000,2063
28.008000,280
28.012000,2560
28.016000,2873
28.020000,3072
28.024000,3659
28.028000,3328
28.032000,94
28.036000,3584
28.040000,2925
28.044000,3840
28.048000,629
28.052000,3840
28.056000,1404
28.060000,3840
28.064000,2175
28.068000,0
28.072000,1408
28.076000,3840
28.080000,122
28.084000,3840
28.088000,3445
28.092000,3840
28.096000,1911
28.100000,3840
28.104000,2697
28.108000,256
28.112000,3999
28.116000,512
28.120000,432
28.124000,768
28.128000,3014
28.132000,1280
28.136000,731
28.140000,1280
28.144000,725
28.148000,1024
28.152000,963
28.156000,768
28.160000,4020
28.164000,512
28.168000,2964
28.172000,3840
28.176000,2640
28.180000,2816
28.184000,1309
28.188000,2048
28.192000,259
28.196000,2032
28.200000,2549
28.204000,2047
28.208000,1260
28.212000,1791
28.216000,235
28.220000,1791
28.224000,230
28.228000,1791
28.232000,488
28.236000,1791
28.240000,2283
28.244000,2047
28.248000,3825
28.252000,2047
28.256000,2809
28.260000,2063
28.264000,3845
28.268000,2048
28.272000,520
28.276000,2048
28.280000,2573
28.284000,2304
28.288000,3092
28.292000,2304
28.296000,2328
28.300000,2560
28.304000,1073
28.308000,3072
28.312000,133
28.316000,1280
28.320000,1597
28.324000,273
28.328000,2288
28.332000,2593
28.336000,2879
28.340000,3362
28.344000,2633
28.348000,2594
28.352000,2286
28.356000,785
28.360000,108
28.364000,2321
28.368000,1464
28.372000,3328
28.376000,553
28.380000,2304
28.384000,2068
28.388000,2048
28.392000,724
28.396000,767
28.400000,2438
28.404000,3839
28.408000,1587
28.412000,2303
28.416000,1274
28.420000,2030
28.424000,2057
28.428000,2815
28.432000,2603
28.436000,3071
28.440000,3635
28.444000,3071
28.448000,1339
28.452000,3071
28.456000,2111
28.460000,3327
28.464000,1349
28.468000,3327
28.472000,3922
28.476000,3583
28.480000,1121
28.484000,3839
28.488000,3191
28.492000,255
28.496000,2707
28.500000,767
28.504000,1197
28.508000,1023
28.512000,1999
28.516000,1535
28.520000,3054
28.524000,2063
28.528000,1810
28.532000,2304
28.536000,3628
28.540000,2816
28.544000,63
28.548000,3072
28.552000,2126
28.556000,3328
28.560000,341
28.564000,3328
28.568000,2146
28.572000,3584
28.576000,1374
28.580000,3328
28.584000,1630
28.588000,3328
28.592000,861
28.596000,3328
28.600000,1371
28.604000,3328
28.608000,345
28.612000,3328
28.616000,1625
28.620000,3328
28.624000,1893
28.628000,3584
28.632000,3453
28.636000,0
28.640000,1413
28.644000,0
28.648000,3994
28.652000,512
28.656000,2478
28.660000,768
28.664000,4014
28.668000,512
28.672000,3999
28.676000,256
28.680000,3215
28.684000,0
28.688000,3440
28.692000,3328
28.696000,52
28.700000,2304
28.704000,1539
28.708000,1776
28.712000,3304
28.716000,1791
28.720000,4062
28.724000,1535
28.728000,3799
28.732000,1535
28.736000,3798
28.740000,1535
28.744000,471
28.748000,1535
28.752000,473
28.756000,1535
28.760000,1243
28.764000,1535
28.768000,2015
28.772000,1535
28.776000,3811
28.780000,1791
28.784000,2283
28.788000,2047
28.792000,3571
28.796000,2047
28.800000,3571
28.804000,2047
28.808000,2809
28.812000,2063
28.816000,773
28.820000,2048
28.824000,2844
28.828000,3072
28.832000,3975
28.836000,1536
28.840000,1871
28.844000,529
28.848000,2043
28.852000,2593
28.856000,1366
28.860000,3618
28.864000,3688
28.868000,3106
28.872000,3859
28.876000,1298
28.880000,2960
28.884000,2833
28.888000,2770
28.892000,0
28.896000,859
28.900000,3072
28.904000,2609
28.908000,2048
28.912000,191
28.916000,255
28.920000,343
28.924000,2815
28.928000,1022
28.932000,1518
28.936000,722
28.940000,1518
28.944000,1261
28.948000,2030
28.952000,3588
28.956000,2303
28.960000,1803
28.964000,2303
28.968000,278
28.972000,2559
28.976000,2844
28.980000,2815
28.984000,2603
28.988000,3071
28.992000,1846
28.996000,3071
29.000000,3914
29.004000,3583
29.008000,1890
29.012000,3839
29.016000,2176
29.020000,511
29.024000,3232
29.028000,1023
29.032000,4037
29.036000,1535
29.040000,486
29.044000,2047
29.048000,1037
29.052000,2304
29.056000,2601
29.060000,2816
29.064000,3134
29.068000,3072
29.072000,1611
29.076000,3072
29.080000,3409
29.084000,3328
29.088000,86
29.092000,3328
29.096000,856
29.100000,3328
29.104000,347
29.108000,3328
29.112000,345
29.116000,3328
29.120000,2390
29.124000,3328
29.128000,2384
29.132000,3328
29.136000,342
29.140000,3328
29.144000,1381
29.148000,3584
29.152000,1143
29.156000,3840
29.160000,1924
29.164000,0
29.168000,3996
29.172000,512
29.176000,427
29.180000,512
29.184000,1187
29.188000,256
29.192000,1940
29.196000,0
29.200000,135
29.204000,3840
29.208000,1886
29.212000,2816
29.216000,33
29.220000,2048
29.224000,3825
29.228000,1791
29.232000,478
29.236000,1535
29.240000,2001
29.244000,1279
29.248000,716
29.252000,1279
29.256000,3269
29.260000,1279
29.264000,4036
29.268000,1279
29.272000,1225
29.276000,1279
29.280000,2766
29.284000,1535
29.288000,3282
29.292000,1535
29.296000,470
29.300000,1535
29.304000,1243
29.308000,1535
29.312000,3039
29.316000,1791
29.320000,3044
29.324000,1791
29.328000,484
29.332000,1791
29.336000,4081
29.340000,2063
29.344000,293
29.348000,3328
29.352000,1705
29.356000,2064
29.360000,630
29.364000,1041
29.368000,517
29.372000,2594
29.376000,2883
29.380000,3106
29.384000,1570
29.388000,1554
29.392000,1197
29.396000,3345
29.400000,4087
29.404000,0
29.408000,3618
29.412000,1776
29.416000,2774
29.420000,1535
29.424000,2241
29.428000,767
29.432000,3449
29.436000,3583
29.440000,2605
29.444000,2303
29.448000,731
29.452000,1262
29.456000,1997
29.460000,1518
29.464000,4084
29.468000,2302
29.472000,3601
29.476000,2559
29.480000,2844
29.484000,2815
29.488000,38
29.492000,2815
29.496000,2093
29.500000,3071
29.504000,821
29.508000,3071
29.512000,3144
29.516000,3583
29.520000,609
29.524000,3839
29.528000,121
29.532000,255
29.536000,3480
29.540000,767
29.544000,4023
29.548000,1279
29.552000,217
29.556000,1791
29.560000,1528
29.564000,2063
29.568000,285
29.572000,2560
29.576000,1074
29.580000,2816
29.584000,836
29.588000,3072
29.592000,3406
29.596000,3328
29.600000,856
29.604000,3328
29.608000,1371
29.612000,3328
29.616000,347
29.620000,3328
29.624000,3672
29.628000,3328
29.632000,2902
29.636000,3328
29.640000,1102
29.644000,3072
29.648000,3404
29.652000,3328
29.656000,3419
29.660000,3584
29.664000,111
29.668000,3840
29.672000,1152
29.676000,0
29.680000,3994
29.684000,512
29.688000,3239
29.692000,512
29.696000,3740
29.700000,256
29.704000,3983
29.708000,0
29.712000,2944
29.716000,3840
29.720000,1629
29.724000,2816
29.728000,2588
29.732000,2048
29.736000,1259
29.740000,1535
29.744000,1234
29.748000,1279
29.752000,3529
29.756000,1279
29.760000,3525
29.764000,1279
29.768000,3269
29.772000,1279
29.776000,3524
29.780000,1279
29.784000,455
29.788000,1279
29.792000,1996
29.796000,1279
29.800000,3281
29.804000,1535
29.808000,470
29.812000,1535
29.816000,1243
29.820000,1535
29.824000,1753
29.828000,1535
29.832000,3295
29.836000,1791
29.840000,998
29.844000,1791
29.848000,2288
29.852000,2063
29.856000,788
29.860000,2816
29.864000,2178
29.868000,1536
29.872000,3916
29.876000,529
29.880000,2024
29.884000,2081
29.888000,1063
29.892000,2594
29.896000,3853
29.900000,1298
29.904000,1184
29.908000,3345
29.912000,3086
29.916000,769
29.920000,2128
29.924000,2304
29.928000,1781
29.932000,1791
29.936000,2527
29.940000,1279
29.944000,1683
29.948000,3839
29.952000,2122
29.956000,2815
29.960000,3057
29.964000,1518
29.968000,2000
29.972000,1518
29.976000,2545
29.980000,2302
29.984000,1801
29.988000,2303
29.992000,20
29.996000,2559
30.000000,281
30.004000,2559
30.008000,2073
30.012000,2815
30.016000,805
30.020000,2815
30.024000,816
30.028000,3071
30.032000,2117
30.036000,3583
30.040000,3159
30.044000,3839
30.048000,2931
30.052000,255
30.056000,2963
30.060000,767
30.064000,3508
30.068000,1279
30.072000,471
30.076000,1791
30.080000,760
30.084000,2063
30.088000,1303
30.092000,2304
30.096000,1060
30.100000,2560
30.104000,306
30.108000,2816
30.112000,2879
30.116000,3072
30.120000,3654
30.124000,3072
30.128000,1100
30.132000,3072
30.136000,3144
30.140000,3072
30.144000,1096
30.148000,3072
30.152000,3660
30.156000,3072
30.160000,3139
30.164000,3072
30.168000,3404
30.172000,3328
30.176000,3419
30.180000,3584
30.184000,2155
30.188000,3840
30.192000,3450
30.196000,0
30.200000,1682
30.204000,256
30.208000,414
30.212000,256
30.216000,1167
30.220000,0
30.224000,2695
30.228000,0
30.232000,3704
30.236000,3584
30.240000,3400
30.244000,2560
30.248000,3589
30.252000,1776
30.256000,4050
30.260000,1279
30.264000,1988
30.268000,1023
30.272000,1983
30.276000,1023
30.280000,1471
30.284000,1023
30.288000,188
30.292000,1023
30.296000,696
30.300000,1023
30.304000,2493
30.308000,1279
30.312000,1223
30.316000,1279
30.320000,1228
30.324000,1279
30.328000,3793
30.332000,1535
30.336000,987
30.340000,1535
30.344000,2014
30.348000,1535
30.352000,1000
30.356000,1791
30.360000,2284
30.364000,2047
30.368000,3840
30.372000,2304
30.376000,3391
30.380000,0
30.384000,2020
30.388000,3088
30.392000,2996
30.396000,2081
30.400000,310
30.404000,3362
30.408000,112
30.412000,3618
30.416000,71
30.420000,2338
30.424000,2526
30.428000,273
30.432000,562
30.436000,1025
30.440000,1139
30.444000,3072
30.448000,575
30.452000,2560
30.456000,760
30.460000,1023
30.464000,2689
30.468000,3583
30.472000,293
30.476000,2031
30.480000,1496
30.484000,1262
30.488000,3541
30.492000,1774
30.496000,3319
30.500000,2302
30.504000,265
30.508000,2303
30.512000,2831
30.516000,2559
30.520000,3604
30.524000,2559
30.528000,2075
30.532000,2815
30.536000,1318
30.540000,2815
30.544000,2102
30.548000,3327
30.552000,3916
30.556000,3583
30.560000,2916
30.564000,4095
30.568000,3460
30.572000,511
30.576000,165
30.580000,1023
30.584000,972
30.588000,1535
30.592000,2283
30.596000,2063
30.600000,525
30.604000,2304
30.608000,2599
30.612000,2816
30.616000,2878
30.620000,3072
30.624000,67
30.628000,3072
30.632000,1611
30.636000,3072
30.640000,1100
30.644000,3072
30.648000,1099
30.652000,3072
30.656000,843
30.660000,3072
30.664000,331
30.668000,3072
30.672000,72
30.676000,3072
30.680000,3660
30.684000,3328
30.688000,608
30.692000,3584
30.696000,1139
30.700000,3840
30.704000,642
30.708000,0
30.712000,3225
30.716000,512
30.720000,3755
30.724000,512
30.728000,673
30.732000,256
30.736000,402
30.740000,0
30.744000,1919
30.748000,3584
30.752000,345
30.756000,2816
30.760000,2074
30.764000,2048
30.768000,3052
30.772000,1791
30.776000,3803
30.780000,1535
30.784000,2002
30.788000,1279
30.792000,1228
30.796000,1279
30.800000,1228
30.804000,1279
30.808000,1225
30.812000,1279
30.816000,1996
30.820000,1279
30.824000,3279
30.828000,1535
30.832000,470
30.836000,1535
30.840000,3036
30.844000,1791
30.848000,1256
30.852000,1791
30.856000,2286
30.860000,2047
30.864000,3825
30.868000,2047
30.872000,2294
30.876000,2063
30.880000,520
30.884000,2304
30.888000,1335
30.892000,3584
30.896000,448
30.900000,2576
30.904000,2448
30.908000,1553
30.912000,3101
30.916000,3106
30.920000,94
30.924000,3362
30.928000,2102
30.932000,2082
30.936000,3010
30.940000,3857
30.944000,3857
30.948000,513
30.952000,838
30.956000,2048
30.960000,1269
30.964000,1791
30.968000,2775
30.972000,1023
30.976000,2438
30.980000,3839
30.984000,1853
30.988000,2303
30.992000,3047
30.996000,1518
31.000000,1242
31.004000,1774
31.008000,2047
31.012000,2302
31.016000,1048
31.020000,2559
31.024000,2332
31.028000,2815
31.032000,3363
31.036000,2815
31.040000,1318
31.044000,2815
31.048000,819
31.052000,3071
31.056000,576
31.060000,3327
31.064000,3159
31.068000,3839
31.072000,1649
31.076000,4095
31.080000,1422
31.084000,511
31.088000,1195
31.092000,1023
31.096000,1228
31.100000,1535
31.104000,491
31.108000,2047
31.112000,11
31.116000,2304
31.120000,1829
31.124000,2560
31.128000,1591
31.132000,2816
31.136000,3137
31.140000,3072
31.144000,840
31.148000,3072
31.152000,1612
31.156000,3072
31.160000,3408
31.164000,3328
31.168000,2901
31.172000,3328
31.176000,2385
31.180000,3328
31.184000,3411
31.188000,3328
31.192000,2136
31.196000,3584
31.200000,3947
31.204000,3840
31.208000,2684
31.212000,0
31.216000,396
31.220000,256
31.224000,1188
31.228000,512
31.232000,3756
31.236000,512
31.240000,2713
31.244000,256
31.248000,3468
31.252000,0
31.256000,2165
31.260000,3584
31.264000,1857
31.268000,2304
31.272000,2816
31.276000,1776
31.280000,468
31.284000,1279
31.288000,3517
31.292000,1023
31.296000,3509
31.300000,1023
31.304000,944
31.308000,767
31.312000,170
31.316000,767
31.320000,938
31.324000,767
31.328000,2223
31.332000,1023
31.336000,4021
31.340000,1023
31.344000,1210
31.348000,1023
31.352000,2495
31.356000,1279
31.360000,3522
31.364000,1279
31.368000,2508
31.372000,1535
31.376000,982
31.380000,1535
31.384000,3294
31.388000,1791
31.392000,236
31.396000,2063
31.400000,3378
31.404000,3840
31.408000,976
31.412000,2832
31.416000,2461
31.420000,1553
31.424000,1035
31.428000,2594
31.432000,2623
31.436000,2850
31.440000,3850
31.444000,1298
31.448000,1947
31.452000,3089
31.456000,2036
31.460000,0
31.464000,1855
31.468000,2304
31.472000,3354
31.476000,2304
31.480000,1784
31.484000,1279
31.488000,669
31.492000,3839
31.496000,3131
31.500000,2303
31.504000,2261
31.508000,1262
31.512000,968
31.516000,1518
31.520000,2031
31.524000,2030
31.528000,774
31.532000,2303
31.536000,1551
31.540000,2303
31.544000,1038
31.548000,2303
31.552000,3087
31.556000,2559
31.560000,3612
31.564000,2815
31.568000,3632
31.572000,3071
31.576000,1346
31.580000,3327
31.584000,346
31.588000,3839
31.592000,889
31.596000,255
31.600000,1950
31.604000,767
31.608000,1212
31.612000,1279
31.616000,1246
31.620000,1791
31.624000,2050
31.628000,2304
31.632000,3101
31.636000,2560
31.640000,549
31.644000,2560
31.648000,3886
31.652000,2816
31.656000,3647
31.660000,3072
31.664000,840
31.668000,3072
31.672000,2376
31.676000,3072
31.680000,1855
31.684000,2816
31.688000,2879
31.692000,3072
31.696000,3654
31.700000,3072
31.704000,841
31.708000,3072
31.712000,851
31.716000,3328
31.720000,3682
31.724000,3584
31.728000,624
31.732000,3840
31.736000,3207
31.740000,256
31.744000,1180
31.748000,256
31.752000,1431
31.756000,0
31.760000,2180
31.764000,0
31.768000,2684
31.772000,3840
31.776000,1117
31.780000,2816
31.784000,3607
31.788000,2032
31.792000,4067
31.796000,1535
31.800000,1233
31.804000,1279
31.808000,2498
31.812000,1279
31.816000,1983
31.820000,1023
31.824000,1980
31.828000,1023
31.832000,3266
31.836000,1279
31.840000,453
31.844000,1279
31.848000,1740
31.852000,1279
31.856000,1998
31.860000,1279
31.864000,4050
31.868000,1535
31.872000,471
31.876000,1535
31.880000,3038
31.884000,1791
31.888000,3811
31.892000,1791
31.896000,488
31.900000,1791
31.904000,3057
31.908000,2063
31.912000,2335
31.916000,3328
31.920000,4001
31.924000,2064
31.928000,887
31.932000,1297
31.936000,3612
31.940000,3106
31.944000,611
31.948000,3618
31.952000,590
31.956000,2338
31.960000,2527
31.964000,273
31.968000,302
31.972000,769
31.976000,2889
31.980000,2048
31.984000,1254
31.988000,1535
31.992000,1733
31.996000,511
32.000000,3950
32.004000,3327
32.008000,1827
32.012000,2031
32.016000,3802
32.020000,1262
32.024000,710
32.028000,1518
32.032000,1773
32.036000,2030
32.040000,260
32.044000,2303
32.048000,2316
32.052000,2559
32.056000,2833
32.060000,2559
32.064000,20
32.068000,2559
32.072000,2843
32.076000,2815
32.080000,3629
32.084000,3071
32.088000,1090
32.092000,3327
32.096000,3930
32.100000,3839
32.104000,3191
32.108000,255
32.112000,3477
32.116000,767
32.120000,2482
32.124000,1279
32.128000,3284
32.132000,1791
32.136000,3059
32.140000,2063
32.144000,1298
32.148000,2304
32.152000,549
32.156000,2560
32.160000,2350
32.164000,2816
32.168000,3892
32.172000,2816
32.176000,1595
32.180000,2816
32.184000,1855
32.188000,2816
32.192000,2367
32.196000,3072
32.200000,1599
32.204000,2816
32.208000,827
32.212000,2816
32.216000,3647
32.220000,3072
32.224000,3660
32.228000,3328
32.232000,3678
32.236000,3584
32.240000,109
32.244000,3840
32.248000,3719
32.252000,256
32.256000,668
32.260000,256
32.264000,1430
32.268000,0
32.272000,644
32.276000,3840
32.280000,627
32.284000,3584
32.288000,856
32.292000,2816
32.296000,3608
32.300000,2032
32.304000,1758
32.308000,1279
32.312000,1989
32.316000,1023
32.320000,3256
32.324000,1023
32.328000,3252
32.332000,1023
32.336000,176
32.340000,767
32.344000,168
32.348000,767
32.352000,2221
32.356000,1023
32.360000,4021
32.364000,1023
32.368000,1212
32.372000,1023
32.376000,3263
32.380000,1279
32.384000,1225
32.388000,1279
32.392000,2508
32.396000,1535
32.400000,4052
32.404000,1535
32.408000,1239
32.412000,1535
32.416000,3556
32.420000,2047
32.424000,1808
32.428000,2816
32.432000,1161
32.436000,1536
32.440000,3927
32.444000,785
32.448000,2808
32.452000,2593
32.456000,2876
32.460000,3106
32.464000,3625
32.468000,1810
32.472000,2488
32.476000,3857
32.480000,1564
32.484000,769
32.488000,3419
32.492000,2304
32.496000,245
32.500000,1791
32.504000,2772
32.508000,1023
32.512000,2441
32.516000,3839
32.520000,3135
32.524000,2559
32.528000,1512
32.532000,1262
32.536000,2758
32.540000,1518
32.544000,485
32.548000,2030
32.552000,260
32.556000,2303
32.560000,2316
32.564000,2559
32.568000,3092
32.572000,2559
32.576000,790
32.580000,2559
32.584000,289
32.588000,2815
32.592000,560
32.596000,3071
32.600000,1859
32.604000,3327
32.608000,602
32.612000,3839
32.616000,891
32.620000,255
32.624000,152
32.628000,767
32.632000,1210
32.636000,1279
32.640000,987
32.644000,1791
32.648000,4088
32.652000,2063
32.656000,527
32.660000,2304
32.664000,3109
32.668000,2816
32.672000,2364
32.676000,3072
32.680000,326
32.684000,3072
32.688000,331
32.692000,3072
32.696000,329
32.700000,3072
32.704000,3656
32.708000,3072
32.712000,3654
32.716000,3072
32.720000,3140
32.724000,3072
32.728000,2377
32.732000,3328
32.736000,3419
32.740000,3584
32.744000,2923
32.748000,3840
32.752000,3964
32.756000,0
32.760000,402
32.764000,256
32.768000,2457
32.772000,256
32.776000,1927
32.780000,3840
32.784000,2168
32.788000,3840
32.792000,2146
32.796000,3328
32.800000,1842
32.804000,2048
32.808000,2793
32.812000,1535
32.816000,4034
32.820000,1023
32.824000,687
32.828000,767
32.832000,3495
32.836000,767
32.840000,1696
32.844000,511
32.848000,1694
32.852000,511
32.856000,1437
32.860000,511
32.864000,2206
32.868000,767
32.872000,2978
32.876000,767
32.880000,677
32.884000,767
32.888000,2221
32.892000,1023
32.896000,3506
32.900000,1023
32.904000,1466
32.908000,1023
32.912000,3524
32.916000,1279
32.920000,453
32.924000,1279
32.928000,1234
32.932000,1791
32.936000,3615
32.940000,3584
32.944000,202
32.948000,2832
32.952000,411
32.956000,1297
32.960000,254
32.964000,2337
32.968000,32
32.972000,2082
32.976000,3545
32.980000,529
32.984000,1892
32.988000,2065
32.992000,1200
32.996000,3072
33.000000,2832
33.004000,2032
33.008000,2025
33.012000,1535
33.016000,3007
33.020000,511
33.024000,2154
33.028000,3327
33.032000,3091
33.036000,1775
33.040000,3001
33.044000,1006
33.048000,696
33.052000,1262
33.056000,4058
33.060000,1774
33.064000,3569
33.068000,2030
33.072000,1273
33.076000,2030
33.080000,2559
33.084000,2302
33.088000,258
33.092000,2303
33.096000,2067
33.100000,2815
33.104000,2089
33.108000,3071
33.112000,821
33.116000,3071
33.120000,3912
33.124000,3583
33.128000,1130
33.132000,4095
33.136000,141
33.140000,511
33.144000,170
33.148000,1023
33.152000,457
33.156000,1535
33.160000,2534
33.164000,2047
33.168000,3840
33.172000,2048
33.176000,3853
